date,minute,value
19.02.2022,60,65.0
19.02.2022,61,65.0
19.02.2022,62,69.0
19.02.2022,63,67.0
19.02.2022,64,69.0
19.02.2022,65,69.0
19.02.2022,66,69.5
19.02.2022,67,67.5
19.02.2022,68,65.0
19.02.2022,69,66.0
19.02.2022,70,68.0
19.02.2022,71,66.0
19.02.2022,72,64.0
19.02.2022,73,64.5
19.02.2022,74,66.0
19.02.2022,75,65.0
19.02.2022,76,66.0
19.02.2022,77,67.0
19.02.2022,78,66.5
19.02.2022,79,66.0
19.02.2022,80,66.0
19.02.2022,81,67.0
19.02.2022,82,66.0
19.02.2022,83,67.0
19.02.2022,84,66.0
19.02.2022,85,67.0
19.02.2022,86,69.5
19.02.2022,87,69.0
19.02.2022,88,71.0
19.02.2022,104,69.0
19.02.2022,105,69.5
19.02.2022,116,64.5
19.02.2022,117,67.0
19.02.2022,118,67.0
19.02.2022,119,65.0
19.02.2022,120,68.0
19.02.2022,121,68.5
19.02.2022,122,70.0
19.02.2022,123,70.0
19.02.2022,124,72.0
19.02.2022,125,64.0
19.02.2022,126,66.0
19.02.2022,127,69.0
19.02.2022,128,68.0
19.02.2022,129,73.0
19.02.2022,130,70.0
19.02.2022,131,77.0
19.02.2022,132,76.0
19.02.2022,133,70.0
19.02.2022,134,77.0
19.02.2022,139,68.0
19.02.2022,140,69.0
19.02.2022,141,70.0
19.02.2022,142,70.0
19.02.2022,143,69.0
19.02.2022,144,68.0
19.02.2022,145,69.0
19.02.2022,146,70.0
19.02.2022,147,70.0
19.02.2022,148,71.0
19.02.2022,149,69.0
19.02.2022,150,68.0
19.02.2022,151,70.0
19.02.2022,152,71.0
19.02.2022,153,71.0
19.02.2022,154,71.0
19.02.2022,155,69.0
19.02.2022,156,69.0
19.02.2022,157,66.0
19.02.2022,158,86.0
19.02.2022,159,86.0
19.02.2022,160,86.0
19.02.2022,161,88.0
19.02.2022,162,86.0
19.02.2022,163,89.0
19.02.2022,164,75.0
19.02.2022,165,71.0
19.02.2022,166,77.0
19.02.2022,167,73.0
19.02.2022,168,71.0
19.02.2022,169,71.0
19.02.2022,170,71.5
19.02.2022,171,67.0
19.02.2022,172,67.0
19.02.2022,173,67.0
19.02.2022,174,67.0
19.02.2022,175,68.0
19.02.2022,176,67.0
19.02.2022,177,67.0
19.02.2022,178,68.0
19.02.2022,179,69.0
19.02.2022,180,70.0
19.02.2022,181,71.0
19.02.2022,182,71.0
19.02.2022,183,70.0
19.02.2022,184,69.0
19.02.2022,185,71.0
19.02.2022,186,71.0
19.02.2022,187,71.0
19.02.2022,188,71.0
19.02.2022,189,71.0
19.02.2022,190,72.0
19.02.2022,191,71.0
19.02.2022,192,72.0
19.02.2022,193,71.0
19.02.2022,194,71.0
19.02.2022,195,71.0
19.02.2022,196,72.0
19.02.2022,197,73.0
19.02.2022,198,72.0
19.02.2022,199,73.0
19.02.2022,200,74.0
19.02.2022,201,73.0
19.02.2022,202,73.0
19.02.2022,203,73.0
19.02.2022,204,75.0
19.02.2022,205,74.0
19.02.2022,206,73.0
19.02.2022,207,73.0
19.02.2022,208,73.0
19.02.2022,209,74.0
19.02.2022,210,75.0
19.02.2022,211,74.0
19.02.2022,212,73.0
19.02.2022,213,74.0
19.02.2022,214,73.0
19.02.2022,215,74.0
19.02.2022,216,73.0
19.02.2022,217,75.0
19.02.2022,218,74.0
19.02.2022,219,72.0
19.02.2022,220,73.0
19.02.2022,221,71.0
19.02.2022,222,83.0
19.02.2022,223,79.5
19.02.2022,224,78.0
19.02.2022,225,76.0
19.02.2022,226,74.0
19.02.2022,227,72.0
19.02.2022,228,71.0
19.02.2022,229,73.0
19.02.2022,230,74.0
19.02.2022,231,74.0
19.02.2022,232,77.0
19.02.2022,233,74.0
19.02.2022,234,78.0
19.02.2022,235,73.0
19.02.2022,236,71.0
19.02.2022,237,73.0
19.02.2022,238,73.0
19.02.2022,239,74.0
19.02.2022,240,74.0
19.02.2022,241,74.0
19.02.2022,242,75.0
19.02.2022,243,71.0
19.02.2022,244,71.0
19.02.2022,245,70.5
19.02.2022,246,72.0
19.02.2022,247,74.0
19.02.2022,248,71.0
19.02.2022,249,73.0
19.02.2022,250,84.0
19.02.2022,251,64.0
19.02.2022,252,67.0
19.02.2022,253,68.0
19.02.2022,254,70.0
19.02.2022,255,70.0
19.02.2022,256,72.0
19.02.2022,257,72.0
19.02.2022,258,69.0
19.02.2022,259,69.0
19.02.2022,260,68.0
19.02.2022,261,70.0
19.02.2022,262,70.0
19.02.2022,263,67.0
19.02.2022,264,67.5
19.02.2022,265,66.5
19.02.2022,266,69.0
19.02.2022,267,67.0
19.02.2022,268,68.0
19.02.2022,269,68.5
19.02.2022,270,77.0
19.02.2022,271,70.0
19.02.2022,272,68.0
19.02.2022,273,68.0
19.02.2022,274,68.0
19.02.2022,275,68.0
19.02.2022,276,68.0
19.02.2022,277,68.0
19.02.2022,278,67.0
19.02.2022,279,66.0
19.02.2022,280,66.0
19.02.2022,281,68.0
19.02.2022,282,78.0
19.02.2022,283,71.0
19.02.2022,284,71.5
19.02.2022,285,66.0
19.02.2022,286,67.0
19.02.2022,287,67.0
19.02.2022,288,66.0
19.02.2022,289,67.0
19.02.2022,290,66.0
19.02.2022,291,67.5
19.02.2022,292,66.0
19.02.2022,293,67.0
19.02.2022,294,67.0
19.02.2022,295,67.0
19.02.2022,296,68.0
19.02.2022,297,67.0
19.02.2022,298,67.0
19.02.2022,299,68.0
19.02.2022,300,65.0
19.02.2022,301,67.0
19.02.2022,302,66.0
19.02.2022,303,67.0
19.02.2022,304,66.0
19.02.2022,305,67.0
19.02.2022,306,68.0
19.02.2022,307,69.0
19.02.2022,308,69.0
19.02.2022,309,67.0
19.02.2022,310,66.0
19.02.2022,311,66.0
19.02.2022,312,66.0
19.02.2022,313,67.0
19.02.2022,314,66.0
19.02.2022,315,65.0
19.02.2022,316,65.0
19.02.2022,317,65.0
19.02.2022,318,66.0
19.02.2022,319,65.0
19.02.2022,320,64.0
19.02.2022,321,64.0
19.02.2022,322,63.0
19.02.2022,323,65.0
19.02.2022,324,64.0
19.02.2022,325,73.5
19.02.2022,326,69.5
19.02.2022,327,71.0
19.02.2022,328,66.0
19.02.2022,329,64.0
19.02.2022,330,68.0
19.02.2022,331,70.0
19.02.2022,332,67.0
19.02.2022,333,67.0
19.02.2022,334,72.0
19.02.2022,335,70.0
19.02.2022,336,70.0
19.02.2022,337,69.0
19.02.2022,338,69.0
19.02.2022,339,77.5
19.02.2022,340,64.5
19.02.2022,341,67.0
19.02.2022,342,64.5
19.02.2022,343,70.0
19.02.2022,344,68.0
19.02.2022,345,67.0
19.02.2022,346,67.0
19.02.2022,347,67.0
19.02.2022,348,68.5
19.02.2022,349,68.0
19.02.2022,350,68.0
19.02.2022,351,66.0
19.02.2022,352,95.0
19.02.2022,353,64.0
19.02.2022,354,62.0
19.02.2022,355,68.0
19.02.2022,356,62.0
19.02.2022,357,62.0
19.02.2022,358,64.0
19.02.2022,359,63.0
19.02.2022,360,67.0
19.02.2022,361,65.0
19.02.2022,362,66.0
19.02.2022,363,66.0
19.02.2022,364,67.0
19.02.2022,365,65.0
19.02.2022,366,64.0
19.02.2022,367,68.0
19.02.2022,368,66.0
19.02.2022,369,65.0
19.02.2022,370,65.0
19.02.2022,371,64.0
19.02.2022,372,66.0
19.02.2022,373,65.0
19.02.2022,374,71.0
19.02.2022,375,64.5
19.02.2022,376,64.0
19.02.2022,377,65.0
19.02.2022,378,65.0
19.02.2022,379,67.5
19.02.2022,395,60.0
19.02.2022,396,65.0
19.02.2022,397,66.0
19.02.2022,398,66.0
19.02.2022,399,66.0
19.02.2022,400,62.0
19.02.2022,401,64.0
19.02.2022,402,63.0
19.02.2022,403,63.0
19.02.2022,404,63.0
19.02.2022,405,63.0
19.02.2022,406,65.0
19.02.2022,407,65.0
19.02.2022,408,72.0
19.02.2022,409,66.0
19.02.2022,410,67.0
19.02.2022,411,67.0
19.02.2022,412,67.0
19.02.2022,413,66.0
19.02.2022,414,91.5
19.02.2022,423,210.0
19.02.2022,429,261.0
19.02.2022,445,107.0
19.02.2022,446,65.0
19.02.2022,447,84.5
19.02.2022,448,71.0
19.02.2022,449,77.0
19.02.2022,450,73.0
19.02.2022,451,76.0
19.02.2022,452,74.5
19.02.2022,453,74.0
19.02.2022,454,74.0
19.02.2022,455,86.0
19.02.2022,456,82.0
19.02.2022,457,81.0
19.02.2022,458,87.5
19.02.2022,459,79.0
19.02.2022,460,82.0
19.02.2022,461,81.0
19.02.2022,462,82.5
19.02.2022,463,86.0
19.02.2022,464,82.0
19.02.2022,465,82.0
19.02.2022,466,83.0
19.02.2022,467,85.0
19.02.2022,468,84.0
19.02.2022,469,80.0
19.02.2022,470,82.0
19.02.2022,471,84.0
19.02.2022,472,86.0
19.02.2022,473,80.0
19.02.2022,474,82.5
19.02.2022,475,85.0
19.02.2022,476,82.0
19.02.2022,477,84.0
19.02.2022,478,60.0
19.02.2022,479,64.5
19.02.2022,528,89.0
19.02.2022,529,87.0
19.02.2022,530,88.0
19.02.2022,531,87.0
19.02.2022,532,88.0
19.02.2022,533,91.5
19.02.2022,534,84.0
19.02.2022,535,89.0
19.02.2022,536,88.0
19.02.2022,537,88.0
19.02.2022,538,88.5
19.02.2022,539,83.0
19.02.2022,540,82.0
19.02.2022,541,88.0
19.02.2022,542,85.0
19.02.2022,543,84.0
19.02.2022,544,85.0
19.02.2022,545,85.0
19.02.2022,546,86.0
19.02.2022,547,87.0
19.02.2022,548,85.0
19.02.2022,549,84.0
19.02.2022,550,81.5
19.02.2022,551,75.0
19.02.2022,552,83.0
19.02.2022,553,82.0
19.02.2022,554,82.0
19.02.2022,555,83.0
19.02.2022,556,83.0
19.02.2022,557,74.0
19.02.2022,558,80.0
19.02.2022,559,94.0
19.02.2022,560,88.0
19.02.2022,561,82.0
19.02.2022,562,84.0
19.02.2022,563,82.0
19.02.2022,564,86.5
19.02.2022,565,83.0
19.02.2022,566,79.5
19.02.2022,567,82.0
19.02.2022,568,81.0
19.02.2022,569,83.0
19.02.2022,570,91.0
19.02.2022,571,95.0
19.02.2022,572,85.0
19.02.2022,573,88.0
19.02.2022,574,85.0
19.02.2022,575,85.0
19.02.2022,576,87.0
19.02.2022,577,89.0
19.02.2022,578,88.0
19.02.2022,579,89.0
19.02.2022,580,91.0
19.02.2022,581,89.0
19.02.2022,582,87.5
19.02.2022,583,85.0
19.02.2022,584,99.5
19.02.2022,585,95.0
19.02.2022,586,89.0
19.02.2022,587,88.0
19.02.2022,588,89.0
19.02.2022,589,84.0
19.02.2022,590,85.5
19.02.2022,591,81.0
19.02.2022,592,105.0
19.02.2022,593,75.0
19.02.2022,594,86.0
19.02.2022,595,83.0
19.02.2022,596,80.0
19.02.2022,597,79.0
19.02.2022,598,85.0
19.02.2022,599,108.0
19.02.2022,600,92.0
19.02.2022,601,89.5
19.02.2022,602,90.0
19.02.2022,603,92.0
19.02.2022,604,87.5
19.02.2022,605,89.0
19.02.2022,606,91.5
19.02.2022,607,92.0
19.02.2022,608,96.0
19.02.2022,609,101.5
19.02.2022,610,79.0
19.02.2022,611,97.0
19.02.2022,612,87.0
19.02.2022,613,99.0
19.02.2022,614,81.0
19.02.2022,615,94.5
19.02.2022,616,100.0
19.02.2022,617,99.0
19.02.2022,618,93.5
19.02.2022,619,101.0
19.02.2022,620,95.0
19.02.2022,621,96.0
19.02.2022,622,92.0
19.02.2022,623,95.0
19.02.2022,624,99.0
19.02.2022,625,93.0
19.02.2022,626,94.0
19.02.2022,627,103.0
19.02.2022,628,100.0
19.02.2022,629,96.0
19.02.2022,630,95.0
19.02.2022,631,87.5
19.02.2022,632,82.5
19.02.2022,633,86.5
19.02.2022,634,80.0
19.02.2022,635,78.0
19.02.2022,636,79.0
19.02.2022,637,68.0
19.02.2022,638,80.0
19.02.2022,639,92.0
19.02.2022,640,81.0
19.02.2022,641,80.5
19.02.2022,642,79.0
19.02.2022,643,84.0
19.02.2022,644,78.0
19.02.2022,645,80.5
19.02.2022,646,89.0
19.02.2022,647,85.0
19.02.2022,648,84.0
19.02.2022,649,82.0
19.02.2022,650,76.0
19.02.2022,651,76.0
19.02.2022,652,74.5
19.02.2022,653,74.5
19.02.2022,654,78.0
19.02.2022,655,82.0
19.02.2022,656,81.0
19.02.2022,657,81.5
19.02.2022,658,94.5
19.02.2022,659,91.0
19.02.2022,660,89.0
19.02.2022,661,85.0
19.02.2022,662,86.5
19.02.2022,663,86.0
19.02.2022,664,83.5
19.02.2022,665,80.0
19.02.2022,666,88.5
19.02.2022,667,84.5
19.02.2022,668,81.5
19.02.2022,669,84.0
19.02.2022,670,84.0
19.02.2022,671,81.0
19.02.2022,672,82.0
19.02.2022,673,85.0
19.02.2022,674,85.0
19.02.2022,675,86.0
19.02.2022,676,76.0
19.02.2022,677,75.0
19.02.2022,678,75.0
19.02.2022,679,81.0
19.02.2022,680,87.0
19.02.2022,681,78.0
19.02.2022,682,78.0
19.02.2022,683,81.0
19.02.2022,684,83.0
19.02.2022,685,78.0
19.02.2022,686,73.0
19.02.2022,687,81.0
19.02.2022,688,80.0
19.02.2022,689,77.0
19.02.2022,690,75.0
19.02.2022,691,71.0
19.02.2022,692,76.0
19.02.2022,693,81.0
19.02.2022,694,80.0
19.02.2022,695,103.0
19.02.2022,696,81.5
19.02.2022,697,96.0
19.02.2022,698,83.5
19.02.2022,699,81.0
19.02.2022,700,85.0
19.02.2022,701,100.5
19.02.2022,702,84.5
19.02.2022,703,78.0
19.02.2022,704,98.0
19.02.2022,705,95.0
19.02.2022,706,78.0
19.02.2022,707,86.0
19.02.2022,708,82.5
19.02.2022,709,79.5
19.02.2022,710,83.0
19.02.2022,711,81.0
19.02.2022,712,80.0
19.02.2022,713,80.0
19.02.2022,714,83.0
19.02.2022,715,89.0
19.02.2022,716,84.5
19.02.2022,717,79.0
19.02.2022,718,81.0
19.02.2022,719,91.0
19.02.2022,720,77.0
19.02.2022,721,72.0
19.02.2022,722,79.0
19.02.2022,723,79.0
19.02.2022,724,72.0
19.02.2022,725,86.5
19.02.2022,726,82.0
19.02.2022,727,77.5
19.02.2022,728,81.0
19.02.2022,729,81.5
19.02.2022,730,79.0
19.02.2022,731,89.0
19.02.2022,732,85.5
19.02.2022,733,85.0
19.02.2022,734,81.0
19.02.2022,735,83.0
19.02.2022,736,82.0
19.02.2022,737,83.0
19.02.2022,738,80.0
19.02.2022,739,83.0
19.02.2022,740,71.5
19.02.2022,741,72.0
19.02.2022,742,83.0
19.02.2022,743,84.0
19.02.2022,744,83.0
19.02.2022,745,85.0
19.02.2022,746,81.0
19.02.2022,747,87.0
19.02.2022,748,89.5
19.02.2022,749,102.0
19.02.2022,750,79.0
19.02.2022,751,71.0
19.02.2022,752,81.0
19.02.2022,753,80.5
19.02.2022,754,81.0
19.02.2022,755,82.5
19.02.2022,756,88.0
19.02.2022,757,91.0
19.02.2022,758,80.0
19.02.2022,759,80.0
19.02.2022,760,80.0
19.02.2022,761,80.5
19.02.2022,762,84.0
19.02.2022,763,95.0
19.02.2022,764,82.0
19.02.2022,765,86.0
19.02.2022,766,78.0
19.02.2022,767,78.0
19.02.2022,768,81.0
19.02.2022,769,89.5
19.02.2022,770,103.0
19.02.2022,771,83.0
19.02.2022,772,86.0
19.02.2022,773,76.0
19.02.2022,774,73.0
19.02.2022,775,73.0
19.02.2022,776,75.5
19.02.2022,777,77.0
19.02.2022,778,77.0
19.02.2022,779,77.0
19.02.2022,780,77.0
19.02.2022,781,75.0
19.02.2022,782,80.0
19.02.2022,783,75.0
19.02.2022,784,77.0
19.02.2022,785,83.0
19.02.2022,786,96.0
19.02.2022,787,96.0
19.02.2022,788,82.0
19.02.2022,789,84.5
19.02.2022,790,85.0
19.02.2022,791,85.0
19.02.2022,792,84.0
19.02.2022,793,98.5
19.02.2022,794,92.0
19.02.2022,795,88.0
19.02.2022,796,80.0
19.02.2022,797,82.5
19.02.2022,798,82.0
19.02.2022,799,85.0
19.02.2022,800,82.5
19.02.2022,801,84.0
19.02.2022,802,82.0
19.02.2022,803,84.0
19.02.2022,804,86.0
19.02.2022,805,88.0
19.02.2022,806,87.0
19.02.2022,807,83.0
19.02.2022,808,85.0
19.02.2022,809,76.0
19.02.2022,810,78.0
19.02.2022,811,74.0
19.02.2022,812,76.0
19.02.2022,813,79.0
19.02.2022,814,76.0
19.02.2022,815,75.0
19.02.2022,816,72.0
19.02.2022,817,73.0
19.02.2022,818,74.0
19.02.2022,819,76.0
19.02.2022,820,69.0
19.02.2022,821,71.0
19.02.2022,822,72.0
19.02.2022,823,76.0
19.02.2022,824,76.0
19.02.2022,825,71.0
19.02.2022,826,72.0
19.02.2022,827,72.0
19.02.2022,828,75.0
19.02.2022,829,83.0
19.02.2022,830,80.0
19.02.2022,831,78.0
19.02.2022,832,79.5
19.02.2022,833,77.0
19.02.2022,834,78.0
19.02.2022,835,74.0
19.02.2022,836,90.5
19.02.2022,837,92.0
19.02.2022,838,88.5
19.02.2022,839,80.5
19.02.2022,840,71.0
19.02.2022,841,76.0
19.02.2022,842,74.0
19.02.2022,843,76.0
19.02.2022,844,75.0
19.02.2022,845,73.0
19.02.2022,846,72.5
19.02.2022,847,75.0
19.02.2022,848,72.0
19.02.2022,849,73.0
19.02.2022,850,71.0
19.02.2022,851,76.0
19.02.2022,852,75.0
19.02.2022,853,80.0
19.02.2022,854,77.5
19.02.2022,855,79.0
19.02.2022,856,82.0
19.02.2022,857,75.0
19.02.2022,858,74.0
19.02.2022,859,74.0
19.02.2022,860,74.5
19.02.2022,861,75.0
19.02.2022,862,79.0
19.02.2022,863,79.0
19.02.2022,864,79.5
19.02.2022,865,78.0
19.02.2022,866,77.0
19.02.2022,867,79.0
19.02.2022,868,79.0
19.02.2022,869,80.0
19.02.2022,870,76.0
19.02.2022,871,79.5
19.02.2022,872,77.0
19.02.2022,873,78.0
19.02.2022,874,77.0
19.02.2022,875,78.0
19.02.2022,876,77.0
19.02.2022,877,76.0
19.02.2022,878,78.0
19.02.2022,879,83.0
19.02.2022,880,80.5
19.02.2022,881,86.0
19.02.2022,882,82.0
19.02.2022,883,80.0
19.02.2022,884,96.0
19.02.2022,885,77.0
19.02.2022,886,80.0
19.02.2022,887,82.0
19.02.2022,888,82.0
19.02.2022,889,87.5
19.02.2022,890,86.5
19.02.2022,891,101.0
19.02.2022,892,81.0
19.02.2022,893,105.0
19.02.2022,894,102.0
19.02.2022,895,104.0
19.02.2022,896,91.5
19.02.2022,897,86.0
19.02.2022,898,80.0
19.02.2022,899,84.0
19.02.2022,900,107.0
19.02.2022,901,105.0
19.02.2022,902,98.0
19.02.2022,904,98.0
19.02.2022,905,86.0
19.02.2022,906,98.0
19.02.2022,907,100.0
19.02.2022,908,100.5
19.02.2022,909,90.0
19.02.2022,910,95.0
19.02.2022,911,84.0
19.02.2022,912,93.0
19.02.2022,913,93.0
19.02.2022,914,95.0
19.02.2022,915,92.0
19.02.2022,916,95.0
19.02.2022,917,91.5
19.02.2022,918,94.0
19.02.2022,919,90.0
19.02.2022,920,93.0
19.02.2022,921,89.0
19.02.2022,922,90.0
19.02.2022,923,90.5
19.02.2022,924,87.5
19.02.2022,925,86.0
19.02.2022,926,80.0
19.02.2022,927,87.0
19.02.2022,928,79.5
19.02.2022,929,87.0
19.02.2022,930,81.0
19.02.2022,931,80.0
19.02.2022,932,81.0
19.02.2022,933,79.0
19.02.2022,934,80.0
19.02.2022,935,82.0
19.02.2022,936,79.0
19.02.2022,937,83.5
19.02.2022,938,81.0
19.02.2022,939,81.0
19.02.2022,940,80.0
19.02.2022,941,80.0
19.02.2022,942,80.0
19.02.2022,943,83.0
19.02.2022,944,80.0
19.02.2022,945,82.0
19.02.2022,946,82.0
19.02.2022,947,83.0
19.02.2022,948,83.0
19.02.2022,949,80.5
19.02.2022,950,89.0
19.02.2022,951,89.0
19.02.2022,952,88.0
19.02.2022,953,84.0
19.02.2022,954,97.0
19.02.2022,955,84.0
19.02.2022,956,87.0
19.02.2022,957,82.5
19.02.2022,958,76.0
19.02.2022,959,75.0
19.02.2022,960,73.0
19.02.2022,961,74.0
19.02.2022,962,74.5
19.02.2022,963,75.0
19.02.2022,964,72.0
19.02.2022,965,73.5
19.02.2022,966,78.0
19.02.2022,967,78.0
19.02.2022,968,77.0
19.02.2022,969,81.0
19.02.2022,970,76.0
19.02.2022,971,77.0
19.02.2022,972,74.0
19.02.2022,973,74.5
19.02.2022,974,80.5
19.02.2022,975,70.0
19.02.2022,976,70.0
19.02.2022,977,70.0
19.02.2022,978,71.0
19.02.2022,979,71.5
19.02.2022,980,70.0
19.02.2022,981,71.0
19.02.2022,982,72.0
19.02.2022,983,72.0
19.02.2022,984,70.0
19.02.2022,985,69.0
19.02.2022,986,75.5
19.02.2022,987,66.5
19.02.2022,988,65.0
19.02.2022,989,65.0
19.02.2022,990,66.0
19.02.2022,991,65.0
19.02.2022,992,66.0
19.02.2022,993,64.5
19.02.2022,994,67.0
19.02.2022,995,65.0
19.02.2022,996,62.0
19.02.2022,997,66.0
19.02.2022,998,64.0
19.02.2022,999,68.0
19.02.2022,1000,64.0
19.02.2022,1001,67.0
19.02.2022,1002,64.0
19.02.2022,1003,67.0
19.02.2022,1004,64.0
19.02.2022,1005,66.0
19.02.2022,1006,64.0
19.02.2022,1007,65.0
19.02.2022,1008,64.0
19.02.2022,1009,66.0
19.02.2022,1010,88.0
19.02.2022,1011,63.0
19.02.2022,1012,65.0
19.02.2022,1013,66.0
19.02.2022,1014,67.0
19.02.2022,1015,64.0
19.02.2022,1016,78.0
19.02.2022,1017,72.0
19.02.2022,1018,76.0
19.02.2022,1019,76.5
19.02.2022,1020,92.5
19.02.2022,1021,81.0
19.02.2022,1022,85.0
19.02.2022,1023,81.0
19.02.2022,1024,96.0
19.02.2022,1025,89.0
19.02.2022,1026,90.0
19.02.2022,1027,84.0
19.02.2022,1028,83.0
19.02.2022,1029,83.0
19.02.2022,1030,83.5
19.02.2022,1031,86.0
19.02.2022,1032,83.0
19.02.2022,1033,85.0
19.02.2022,1034,92.0
19.02.2022,1035,86.0
19.02.2022,1036,83.0
19.02.2022,1037,81.0
19.02.2022,1038,85.0
19.02.2022,1039,83.0
19.02.2022,1040,84.0
19.02.2022,1041,82.0
19.02.2022,1042,80.0
19.02.2022,1043,83.0
19.02.2022,1044,83.0
19.02.2022,1045,85.0
19.02.2022,1046,86.0
19.02.2022,1047,83.0
19.02.2022,1048,82.0
19.02.2022,1049,81.0
19.02.2022,1050,82.0
19.02.2022,1051,78.5
19.02.2022,1052,78.5
19.02.2022,1053,84.0
19.02.2022,1054,84.0
19.02.2022,1055,76.5
19.02.2022,1056,75.0
19.02.2022,1057,68.0
19.02.2022,1058,75.0
19.02.2022,1059,76.0
19.02.2022,1060,73.0
19.02.2022,1061,71.5
19.02.2022,1062,71.5
19.02.2022,1063,73.0
19.02.2022,1064,79.0
19.02.2022,1065,72.0
19.02.2022,1066,70.0
19.02.2022,1067,72.0
19.02.2022,1068,79.0
19.02.2022,1069,79.0
19.02.2022,1070,81.0
19.02.2022,1071,81.0
19.02.2022,1072,86.0
19.02.2022,1073,84.0
19.02.2022,1074,83.5
19.02.2022,1075,80.0
19.02.2022,1076,85.0
19.02.2022,1077,79.5
19.02.2022,1078,75.0
19.02.2022,1079,80.5
19.02.2022,1080,84.0
19.02.2022,1081,82.5
19.02.2022,1082,82.0
19.02.2022,1083,83.0
19.02.2022,1084,85.0
19.02.2022,1085,99.0
19.02.2022,1086,74.0
19.02.2022,1087,65.0
19.02.2022,1088,86.5
19.02.2022,1089,82.0
19.02.2022,1090,73.5
19.02.2022,1091,76.5
19.02.2022,1092,77.5
19.02.2022,1093,85.0
19.02.2022,1094,86.0
19.02.2022,1095,77.0
19.02.2022,1096,80.0
19.02.2022,1097,69.0
19.02.2022,1098,79.0
19.02.2022,1099,72.0
19.02.2022,1100,75.0
19.02.2022,1101,69.0
19.02.2022,1104,0.0
19.02.2022,1105,77.5
19.02.2022,1106,76.0
19.02.2022,1107,75.0
19.02.2022,1108,75.0
19.02.2022,1109,73.0
19.02.2022,1110,64.0
19.02.2022,1111,76.0
19.02.2022,1112,86.0
19.02.2022,1113,92.0
19.02.2022,1114,72.0
19.02.2022,1115,76.0
19.02.2022,1116,86.0
19.02.2022,1117,101.5
19.02.2022,1118,126.5
19.02.2022,1119,77.0
19.02.2022,1120,85.5
19.02.2022,1121,86.0
19.02.2022,1122,76.0
19.02.2022,1123,129.5
19.02.2022,1124,89.0
19.02.2022,1125,86.0
19.02.2022,1126,70.0
19.02.2022,1127,71.0
19.02.2022,1128,75.0
19.02.2022,1129,76.0
19.02.2022,1130,76.0
19.02.2022,1131,75.0
19.02.2022,1132,76.0
19.02.2022,1133,77.0
19.02.2022,1134,78.0
19.02.2022,1135,73.0
19.02.2022,1136,74.0
19.02.2022,1137,73.0
19.02.2022,1138,88.5
19.02.2022,1139,78.0
19.02.2022,1140,69.0
19.02.2022,1141,71.0
19.02.2022,1142,70.0
19.02.2022,1143,82.0
19.02.2022,1144,69.0
19.02.2022,1145,66.0
19.02.2022,1146,67.0
19.02.2022,1147,69.0
19.02.2022,1148,70.5
19.02.2022,1149,71.0
19.02.2022,1150,70.0
19.02.2022,1151,70.5
19.02.2022,1152,72.0
19.02.2022,1153,70.0
19.02.2022,1154,71.0
19.02.2022,1155,69.5
19.02.2022,1156,72.0
19.02.2022,1157,88.0
19.02.2022,1158,81.0
19.02.2022,1159,80.5
19.02.2022,1160,80.0
19.02.2022,1161,80.0
19.02.2022,1162,77.5
19.02.2022,1163,76.0
19.02.2022,1164,80.0
19.02.2022,1165,80.0
19.02.2022,1166,78.0
19.02.2022,1167,77.0
19.02.2022,1168,77.0
19.02.2022,1169,76.0
19.02.2022,1170,75.0
19.02.2022,1171,79.0
19.02.2022,1172,83.0
19.02.2022,1173,79.0
19.02.2022,1174,78.0
19.02.2022,1175,78.5
19.02.2022,1176,79.0
19.02.2022,1177,81.0
19.02.2022,1178,78.0
19.02.2022,1179,78.0
19.02.2022,1180,78.0
19.02.2022,1181,79.5
19.02.2022,1182,78.0
19.02.2022,1183,79.0
19.02.2022,1184,79.0
19.02.2022,1185,79.0
19.02.2022,1186,80.0
19.02.2022,1187,78.0
19.02.2022,1188,78.0
19.02.2022,1189,80.0
19.02.2022,1190,78.0
19.02.2022,1191,86.0
19.02.2022,1192,79.0
19.02.2022,1193,73.0
19.02.2022,1194,84.0
19.02.2022,1195,79.0
19.02.2022,1196,74.0
19.02.2022,1197,78.0
19.02.2022,1198,74.0
19.02.2022,1199,77.0
19.02.2022,1200,74.0
19.02.2022,1201,78.0
19.02.2022,1202,70.0
19.02.2022,1203,73.0
19.02.2022,1204,70.0
19.02.2022,1205,72.0
19.02.2022,1206,75.0
19.02.2022,1207,73.5
19.02.2022,1208,71.0
19.02.2022,1209,71.0
19.02.2022,1210,67.0
19.02.2022,1211,69.0
19.02.2022,1212,85.0
19.02.2022,1213,94.0
19.02.2022,1214,77.0
19.02.2022,1215,74.0
19.02.2022,1216,77.0
19.02.2022,1217,76.0
19.02.2022,1218,75.0
19.02.2022,1219,76.0
19.02.2022,1220,80.0
19.02.2022,1221,73.0
19.02.2022,1222,68.0
19.02.2022,1223,70.0
19.02.2022,1224,75.0
19.02.2022,1225,72.0
19.02.2022,1226,75.0
19.02.2022,1227,74.0
19.02.2022,1228,73.0
19.02.2022,1229,81.0
19.02.2022,1230,79.0
19.02.2022,1231,72.0
19.02.2022,1232,71.0
19.02.2022,1233,72.0
19.02.2022,1234,71.0
19.02.2022,1235,71.5
19.02.2022,1236,133.5
19.02.2022,1237,69.0
19.02.2022,1238,68.0
19.02.2022,1239,70.0
19.02.2022,1240,80.0
19.02.2022,1241,74.5
19.02.2022,1242,84.0
19.02.2022,1243,74.0
19.02.2022,1244,76.0
19.02.2022,1245,79.0
19.02.2022,1246,84.0
19.02.2022,1247,87.0
19.02.2022,1248,72.0
19.02.2022,1249,64.5
19.02.2022,1250,62.0
19.02.2022,1251,61.5
19.02.2022,1252,60.0
19.02.2022,1253,62.5
19.02.2022,1254,65.0
19.02.2022,1255,65.0
19.02.2022,1256,65.0
19.02.2022,1257,63.0
19.02.2022,1258,69.0
19.02.2022,1259,84.0
19.02.2022,1260,83.0
19.02.2022,1261,85.0
19.02.2022,1262,75.0
19.02.2022,1263,79.0
19.02.2022,1264,81.0
19.02.2022,1265,77.0
19.02.2022,1266,78.0
19.02.2022,1267,81.0
19.02.2022,1268,80.0
19.02.2022,1269,80.0
19.02.2022,1270,78.5
19.02.2022,1271,79.0
19.02.2022,1272,77.0
19.02.2022,1273,75.0
19.02.2022,1274,78.5
19.02.2022,1275,81.0
19.02.2022,1276,75.0
19.02.2022,1277,72.0
19.02.2022,1278,73.0
19.02.2022,1279,77.0
19.02.2022,1280,70.0
19.02.2022,1281,69.0
19.02.2022,1284,64.0
19.02.2022,1285,68.0
19.02.2022,1286,76.0
19.02.2022,1287,79.0
19.02.2022,1288,73.0
19.02.2022,1289,67.5
19.02.2022,1290,72.0
19.02.2022,1291,88.0
19.02.2022,1292,75.5
19.02.2022,1293,70.0
19.02.2022,1294,70.0
19.02.2022,1295,70.5
19.02.2022,1296,70.0
19.02.2022,1297,71.0
19.02.2022,1298,70.0
19.02.2022,1299,70.0
19.02.2022,1300,71.0
19.02.2022,1301,70.0
19.02.2022,1302,73.0
19.02.2022,1303,65.0
19.02.2022,1304,70.0
19.02.2022,1305,68.0
19.02.2022,1306,73.0
19.02.2022,1307,71.0
19.02.2022,1308,80.0
19.02.2022,1309,93.0
19.02.2022,1310,91.5
19.02.2022,1311,76.0
19.02.2022,1312,63.0
19.02.2022,1313,57.0
19.02.2022,1314,56.5
19.02.2022,1315,57.0
19.02.2022,1316,55.0
19.02.2022,1317,55.5
19.02.2022,1318,57.0
19.02.2022,1319,57.5
19.02.2022,1320,57.0
19.02.2022,1321,57.0
19.02.2022,1322,56.0
19.02.2022,1323,56.0
19.02.2022,1324,55.0
19.02.2022,1325,58.0
19.02.2022,1326,72.0
19.02.2022,1327,60.0
19.02.2022,1328,60.0
19.02.2022,1329,60.0
19.02.2022,1330,62.0
19.02.2022,1331,60.0
19.02.2022,1332,59.0
19.02.2022,1333,59.0
19.02.2022,1334,58.0
19.02.2022,1335,59.0
19.02.2022,1336,60.0
19.02.2022,1337,59.0
19.02.2022,1338,59.0
19.02.2022,1339,60.0
19.02.2022,1340,59.0
19.02.2022,1341,60.0
19.02.2022,1342,60.0
19.02.2022,1343,59.0
19.02.2022,1344,59.0
19.02.2022,1345,60.0
19.02.2022,1346,60.0
19.02.2022,1347,59.0
19.02.2022,1348,59.0
19.02.2022,1349,59.0
19.02.2022,1350,60.0
19.02.2022,1351,61.0
19.02.2022,1352,57.5
19.02.2022,1353,60.0
19.02.2022,1354,59.0
19.02.2022,1355,59.0
19.02.2022,1356,60.0
19.02.2022,1357,60.0
19.02.2022,1358,58.0
19.02.2022,1359,58.0
19.02.2022,1360,60.0
19.02.2022,1361,60.0
19.02.2022,1362,59.0
19.02.2022,1363,60.0
19.02.2022,1364,60.0
19.02.2022,1365,60.0
19.02.2022,1366,60.0
19.02.2022,1367,61.0
19.02.2022,1368,61.0
19.02.2022,1369,61.0
19.02.2022,1370,61.0
19.02.2022,1371,63.0
19.02.2022,1372,61.0
19.02.2022,1373,60.0
19.02.2022,1374,61.0
19.02.2022,1375,60.0
19.02.2022,1376,61.0
19.02.2022,1377,60.0
19.02.2022,1378,60.0
19.02.2022,1379,62.0
19.02.2022,1380,71.5
19.02.2022,1381,59.0
19.02.2022,1382,61.0
19.02.2022,1383,61.0
19.02.2022,1384,62.0
19.02.2022,1385,62.5
19.02.2022,1386,64.0
19.02.2022,1387,79.5
19.02.2022,1388,60.5
19.02.2022,1389,61.0
19.02.2022,1390,60.0
19.02.2022,1391,59.0
19.02.2022,1392,58.0
19.02.2022,1393,63.0
19.02.2022,1394,85.0
19.02.2022,1395,63.0
19.02.2022,1396,59.0
19.02.2022,1397,60.0
19.02.2022,1398,60.0
19.02.2022,1399,59.0
19.02.2022,1400,60.0
19.02.2022,1401,59.0
19.02.2022,1402,59.5
19.02.2022,1403,59.0
19.02.2022,1404,58.0
19.02.2022,1405,58.0
19.02.2022,1406,58.5
19.02.2022,1407,59.0
19.02.2022,1408,58.0
19.02.2022,1409,59.0
19.02.2022,1410,58.0
19.02.2022,1411,58.0
19.02.2022,1412,59.0
19.02.2022,1413,59.0
19.02.2022,1414,58.0
19.02.2022,1415,58.0
19.02.2022,1416,58.0
19.02.2022,1417,58.0
19.02.2022,1418,58.0
19.02.2022,1419,59.0
19.02.2022,1420,60.0
19.02.2022,1421,59.0
19.02.2022,1422,58.0
19.02.2022,1423,58.0
19.02.2022,1424,58.0
19.02.2022,1425,58.0
19.02.2022,1426,60.0
19.02.2022,1427,59.0
19.02.2022,1428,58.0
19.02.2022,1429,57.0
19.02.2022,1430,71.0
19.02.2022,1431,59.0
19.02.2022,1432,58.0
19.02.2022,1433,58.0
19.02.2022,1434,58.0
19.02.2022,1435,57.0
19.02.2022,1436,58.0
19.02.2022,1437,58.0
19.02.2022,1438,59.0
19.02.2022,1439,57.0
20.02.2022,0,57.0
20.02.2022,1,59.0
20.02.2022,2,58.0
20.02.2022,3,56.0
20.02.2022,4,57.0
20.02.2022,5,56.0
20.02.2022,6,57.0
20.02.2022,7,58.0
20.02.2022,8,56.0
20.02.2022,9,68.5
20.02.2022,10,68.0
20.02.2022,11,58.5
20.02.2022,12,61.0
20.02.2022,13,59.0
20.02.2022,14,57.0
20.02.2022,15,58.0
20.02.2022,22,88.0
20.02.2022,23,79.5
20.02.2022,41,81.0
20.02.2022,42,57.0
20.02.2022,50,44.0
20.02.2022,51,81.0
20.02.2022,69,63.0
20.02.2022,70,65.0
20.02.2022,72,63.0
20.02.2022,73,62.0
20.02.2022,74,62.0
20.02.2022,75,61.0
20.02.2022,76,60.0
20.02.2022,77,62.0
20.02.2022,78,60.0
20.02.2022,79,60.0
20.02.2022,80,61.0
20.02.2022,81,61.0
20.02.2022,82,60.0
20.02.2022,83,60.0
20.02.2022,84,62.0
20.02.2022,85,61.0
20.02.2022,86,61.0
20.02.2022,87,59.0
20.02.2022,88,60.0
20.02.2022,89,55.0
20.02.2022,91,93.0
20.02.2022,92,87.0
20.02.2022,93,66.0
20.02.2022,94,56.0
20.02.2022,95,55.0
20.02.2022,96,56.0
20.02.2022,102,83.5
20.02.2022,103,0.0
20.02.2022,104,67.5
20.02.2022,105,60.0
20.02.2022,106,58.0
20.02.2022,107,58.0
20.02.2022,108,58.0
20.02.2022,109,57.0
20.02.2022,110,58.0
20.02.2022,111,59.0
20.02.2022,112,58.0
20.02.2022,113,58.0
20.02.2022,114,58.0
20.02.2022,115,61.0
20.02.2022,116,58.0
20.02.2022,117,58.0
20.02.2022,118,57.0
20.02.2022,119,58.0
20.02.2022,120,58.0
20.02.2022,121,62.0
20.02.2022,122,89.0
20.02.2022,123,58.5
20.02.2022,124,53.0
20.02.2022,125,53.0
20.02.2022,126,55.0
20.02.2022,127,54.0
20.02.2022,128,54.0
20.02.2022,129,55.0
20.02.2022,130,57.0
20.02.2022,131,56.0
20.02.2022,132,55.0
20.02.2022,133,56.0
20.02.2022,134,56.0
20.02.2022,135,55.0
20.02.2022,136,55.0
20.02.2022,137,55.0
20.02.2022,138,56.0
20.02.2022,139,56.0
20.02.2022,140,58.0
20.02.2022,141,57.0
20.02.2022,142,85.0
20.02.2022,165,60.0
20.02.2022,166,59.0
20.02.2022,168,0.0
20.02.2022,169,64.5
20.02.2022,170,61.0
20.02.2022,171,61.0
20.02.2022,172,57.0
20.02.2022,173,59.0
20.02.2022,174,70.5
20.02.2022,175,81.0
20.02.2022,177,59.0
20.02.2022,178,58.0
20.02.2022,179,58.0
20.02.2022,180,56.0
20.02.2022,181,56.0
20.02.2022,182,64.5
20.02.2022,183,68.5
20.02.2022,184,67.0
20.02.2022,185,57.0
20.02.2022,186,55.0
20.02.2022,187,55.0
20.02.2022,188,55.0
20.02.2022,189,56.0
20.02.2022,190,55.0
20.02.2022,191,55.0
20.02.2022,192,59.0
20.02.2022,193,55.0
20.02.2022,194,56.0
20.02.2022,195,56.0
20.02.2022,196,57.0
20.02.2022,197,57.0
20.02.2022,198,57.0
20.02.2022,199,57.0
20.02.2022,200,57.0
20.02.2022,201,58.0
20.02.2022,202,56.5
20.02.2022,203,55.0
20.02.2022,204,57.0
20.02.2022,205,56.5
20.02.2022,206,56.0
20.02.2022,207,56.0
20.02.2022,208,55.0
20.02.2022,209,57.0
20.02.2022,210,55.0
20.02.2022,211,57.0
20.02.2022,212,56.0
20.02.2022,213,55.0
20.02.2022,214,57.0
20.02.2022,215,57.0
20.02.2022,216,57.0
20.02.2022,217,55.5
20.02.2022,218,56.0
20.02.2022,219,55.0
20.02.2022,220,55.0
20.02.2022,221,55.0
20.02.2022,222,56.0
20.02.2022,223,56.0
20.02.2022,224,56.0
20.02.2022,225,57.0
20.02.2022,226,56.0
20.02.2022,227,58.0
20.02.2022,228,74.0
20.02.2022,229,61.0
20.02.2022,230,63.0
20.02.2022,231,58.0
20.02.2022,232,65.5
20.02.2022,233,60.0
20.02.2022,234,58.0
20.02.2022,235,60.0
20.02.2022,236,61.5
20.02.2022,237,61.0
20.02.2022,238,61.0
20.02.2022,239,63.0
20.02.2022,240,60.0
20.02.2022,241,59.5
20.02.2022,242,61.5
20.02.2022,243,68.0
20.02.2022,244,56.0
20.02.2022,245,58.0
20.02.2022,246,64.5
20.02.2022,247,65.0
20.02.2022,248,77.0
20.02.2022,249,60.0
20.02.2022,250,60.0
20.02.2022,251,60.0
20.02.2022,252,60.0
20.02.2022,253,59.5
20.02.2022,254,61.0
20.02.2022,255,55.0
20.02.2022,256,57.0
20.02.2022,257,60.0
20.02.2022,258,57.0
20.02.2022,259,61.0
20.02.2022,260,58.5
20.02.2022,261,62.0
20.02.2022,262,57.0
20.02.2022,263,56.0
20.02.2022,264,59.0
20.02.2022,265,60.0
20.02.2022,266,59.0
20.02.2022,267,60.0
20.02.2022,268,59.0
20.02.2022,269,62.0
20.02.2022,275,0.0
20.02.2022,301,79.0
20.02.2022,302,88.5
20.02.2022,312,185.0
20.02.2022,325,103.0
20.02.2022,326,58.0
20.02.2022,327,57.0
20.02.2022,328,56.0
20.02.2022,329,59.0
20.02.2022,330,60.0
20.02.2022,331,58.0
20.02.2022,332,61.0
20.02.2022,333,58.0
20.02.2022,334,59.0
20.02.2022,335,60.0
20.02.2022,336,60.0
20.02.2022,337,76.0
20.02.2022,338,126.0
20.02.2022,339,137.0
20.02.2022,342,73.0
20.02.2022,343,57.0
20.02.2022,349,0.0
20.02.2022,350,60.0
20.02.2022,364,0.0
20.02.2022,365,84.5
20.02.2022,366,57.0
20.02.2022,367,58.0
20.02.2022,368,57.0
20.02.2022,369,59.0
20.02.2022,370,60.0
20.02.2022,371,70.5
20.02.2022,372,57.0
20.02.2022,373,56.0
20.02.2022,374,56.5
20.02.2022,375,57.0
20.02.2022,376,57.0
20.02.2022,377,60.0
20.02.2022,378,57.5
20.02.2022,379,58.0
20.02.2022,380,66.5
20.02.2022,381,74.0
20.02.2022,382,57.0
20.02.2022,383,55.0
20.02.2022,384,55.0
20.02.2022,385,61.0
20.02.2022,386,57.0
20.02.2022,387,56.0
20.02.2022,388,58.0
20.02.2022,389,59.0
20.02.2022,390,57.0
20.02.2022,391,58.0
20.02.2022,392,57.0
20.02.2022,393,57.0
20.02.2022,394,57.0
20.02.2022,395,59.0
20.02.2022,396,58.0
20.02.2022,397,59.5
20.02.2022,398,59.0
20.02.2022,399,59.0
20.02.2022,400,59.0
20.02.2022,401,62.0
20.02.2022,402,61.0
20.02.2022,403,59.0
20.02.2022,404,59.0
20.02.2022,405,59.0
20.02.2022,406,59.0
20.02.2022,407,58.0
20.02.2022,408,58.0
20.02.2022,409,59.0
20.02.2022,410,60.0
20.02.2022,411,58.0
20.02.2022,412,60.0
20.02.2022,413,60.0
20.02.2022,414,59.0
20.02.2022,415,58.0
20.02.2022,416,61.0
20.02.2022,417,59.0
20.02.2022,418,60.0
20.02.2022,419,59.0
20.02.2022,420,61.0
20.02.2022,421,60.0
20.02.2022,422,58.0
20.02.2022,423,59.0
20.02.2022,424,69.0
20.02.2022,425,59.0
20.02.2022,426,56.5
20.02.2022,427,56.0
20.02.2022,428,56.0
20.02.2022,429,57.0
20.02.2022,430,57.0
20.02.2022,431,61.0
20.02.2022,432,61.5
20.02.2022,433,69.5
20.02.2022,434,59.5
20.02.2022,435,70.0
20.02.2022,436,73.0
20.02.2022,437,82.5
20.02.2022,438,83.5
20.02.2022,439,70.0
20.02.2022,440,85.5
20.02.2022,441,84.0
20.02.2022,442,81.0
20.02.2022,443,76.0
20.02.2022,444,75.5
20.02.2022,445,78.0
20.02.2022,446,83.0
20.02.2022,447,80.0
20.02.2022,448,71.0
20.02.2022,449,68.0
20.02.2022,451,72.0
20.02.2022,452,85.0
20.02.2022,453,73.0
20.02.2022,454,71.0
20.02.2022,456,106.5
20.02.2022,457,77.0
20.02.2022,458,83.0
20.02.2022,459,80.5
20.02.2022,460,76.0
20.02.2022,461,80.0
20.02.2022,462,79.0
20.02.2022,463,82.0
20.02.2022,464,80.0
20.02.2022,465,79.0
20.02.2022,466,80.0
20.02.2022,467,79.0
20.02.2022,468,79.0
20.02.2022,469,77.0
20.02.2022,470,78.0
20.02.2022,471,84.0
20.02.2022,472,77.0
20.02.2022,473,79.5
20.02.2022,474,84.0
20.02.2022,475,83.0
20.02.2022,476,87.0
20.02.2022,477,85.0
20.02.2022,478,81.0
20.02.2022,479,80.0
20.02.2022,480,80.0
20.02.2022,481,85.0
20.02.2022,482,81.0
20.02.2022,483,83.0
20.02.2022,484,80.0
20.02.2022,485,79.0
20.02.2022,486,83.0
20.02.2022,487,82.0
20.02.2022,488,80.0
20.02.2022,489,80.0
20.02.2022,490,77.0
20.02.2022,491,75.0
20.02.2022,492,79.0
20.02.2022,493,76.0
20.02.2022,494,76.5
20.02.2022,495,77.5
20.02.2022,496,76.0
20.02.2022,497,75.5
20.02.2022,498,74.5
20.02.2022,499,74.0
20.02.2022,500,73.0
20.02.2022,501,80.5
20.02.2022,502,76.0
20.02.2022,503,61.0
20.02.2022,504,77.0
20.02.2022,505,75.0
20.02.2022,506,72.0
20.02.2022,507,70.5
20.02.2022,508,74.0
20.02.2022,509,73.0
20.02.2022,510,84.0
20.02.2022,511,85.0
20.02.2022,512,82.0
20.02.2022,513,83.0
20.02.2022,514,83.0
20.02.2022,515,80.0
20.02.2022,516,82.0
20.02.2022,517,80.0
20.02.2022,518,82.5
20.02.2022,519,81.0
20.02.2022,520,82.0
20.02.2022,521,79.0
20.02.2022,522,81.0
20.02.2022,523,83.0
20.02.2022,524,85.0
20.02.2022,525,78.0
20.02.2022,526,83.0
20.02.2022,527,83.0
20.02.2022,528,82.0
20.02.2022,529,86.0
20.02.2022,530,81.0
20.02.2022,531,83.0
20.02.2022,532,81.0
20.02.2022,533,84.5
20.02.2022,534,88.0
20.02.2022,535,84.0
20.02.2022,536,81.0
20.02.2022,537,75.0
20.02.2022,543,0.0
20.02.2022,544,87.5
20.02.2022,545,87.0
20.02.2022,546,80.0
20.02.2022,547,86.0
20.02.2022,548,79.0
20.02.2022,549,79.0
20.02.2022,550,79.0
20.02.2022,551,84.0
20.02.2022,552,74.0
20.02.2022,553,74.0
20.02.2022,554,75.0
20.02.2022,555,71.0
20.02.2022,556,70.0
20.02.2022,557,74.0
20.02.2022,558,67.5
20.02.2022,559,71.0
20.02.2022,560,72.0
20.02.2022,561,69.0
20.02.2022,562,73.0
20.02.2022,563,74.0
20.02.2022,564,85.0
20.02.2022,565,99.0
20.02.2022,566,93.0
20.02.2022,567,91.0
20.02.2022,568,87.0
20.02.2022,569,97.0
20.02.2022,570,80.0
20.02.2022,571,76.0
20.02.2022,572,78.0
20.02.2022,573,84.0
20.02.2022,574,87.0
20.02.2022,575,87.0
20.02.2022,576,87.0
20.02.2022,577,85.0
20.02.2022,578,81.0
20.02.2022,579,105.0
20.02.2022,580,83.0
20.02.2022,581,77.0
20.02.2022,582,91.0
20.02.2022,583,93.0
20.02.2022,584,86.0
20.02.2022,585,88.5
20.02.2022,586,79.0
20.02.2022,587,84.0
20.02.2022,588,97.0
20.02.2022,589,105.5
20.02.2022,590,88.0
20.02.2022,591,82.0
20.02.2022,592,84.0
20.02.2022,593,85.0
20.02.2022,594,112.0
20.02.2022,595,100.0
20.02.2022,596,101.0
20.02.2022,597,87.5
20.02.2022,598,96.0
20.02.2022,599,90.0
20.02.2022,600,105.5
20.02.2022,601,123.0
20.02.2022,602,98.5
20.02.2022,603,114.5
20.02.2022,604,89.0
20.02.2022,605,100.0
20.02.2022,606,100.5
20.02.2022,607,90.0
20.02.2022,608,90.0
20.02.2022,609,85.0
20.02.2022,610,123.0
20.02.2022,611,90.0
20.02.2022,612,88.0
20.02.2022,613,98.5
20.02.2022,614,98.5
20.02.2022,615,86.0
20.02.2022,616,88.0
20.02.2022,617,97.0
20.02.2022,618,102.0
20.02.2022,619,101.5
20.02.2022,620,97.0
20.02.2022,621,103.0
20.02.2022,622,107.0
20.02.2022,623,103.0
20.02.2022,624,91.0
20.02.2022,625,89.0
20.02.2022,626,84.0
20.02.2022,627,85.0
20.02.2022,628,106.0
20.02.2022,629,96.0
20.02.2022,630,96.5
20.02.2022,631,94.0
20.02.2022,632,93.0
20.02.2022,633,92.0
20.02.2022,634,90.0
20.02.2022,635,93.0
20.02.2022,636,97.0
20.02.2022,637,94.5
20.02.2022,638,89.0
20.02.2022,639,89.0
20.02.2022,640,87.0
20.02.2022,641,89.0
20.02.2022,642,94.0
20.02.2022,643,91.0
20.02.2022,644,92.0
20.02.2022,645,93.5
20.02.2022,646,88.0
20.02.2022,647,90.0
20.02.2022,648,89.0
20.02.2022,649,92.0
20.02.2022,650,92.0
20.02.2022,651,88.5
20.02.2022,652,90.0
20.02.2022,653,88.0
20.02.2022,654,93.0
20.02.2022,655,88.0
20.02.2022,656,88.0
20.02.2022,657,86.0
20.02.2022,658,87.0
20.02.2022,659,90.0
20.02.2022,660,88.0
20.02.2022,661,87.0
20.02.2022,662,86.0
20.02.2022,663,87.0
20.02.2022,664,85.0
20.02.2022,665,90.0
20.02.2022,666,94.0
20.02.2022,667,86.0
20.02.2022,668,88.0
20.02.2022,669,88.0
20.02.2022,670,86.0
20.02.2022,671,88.0
20.02.2022,672,88.0
20.02.2022,673,89.0
20.02.2022,674,88.0
20.02.2022,675,85.0
20.02.2022,676,93.0
20.02.2022,677,88.0
20.02.2022,678,89.0
20.02.2022,679,89.0
20.02.2022,680,84.0
20.02.2022,681,87.0
20.02.2022,682,93.0
20.02.2022,683,88.0
20.02.2022,684,90.0
20.02.2022,685,86.0
20.02.2022,686,85.5
20.02.2022,687,89.0
20.02.2022,688,87.0
20.02.2022,689,87.5
20.02.2022,690,88.0
20.02.2022,691,86.0
20.02.2022,692,87.0
20.02.2022,693,86.0
20.02.2022,694,87.0
20.02.2022,695,88.0
20.02.2022,696,87.0
20.02.2022,697,88.0
20.02.2022,698,89.0
20.02.2022,699,88.0
20.02.2022,700,85.0
20.02.2022,701,88.0
20.02.2022,702,90.0
20.02.2022,703,91.0
20.02.2022,704,92.0
20.02.2022,705,83.5
20.02.2022,706,86.0
20.02.2022,707,84.0
20.02.2022,708,95.5
20.02.2022,709,92.5
20.02.2022,710,89.0
20.02.2022,711,87.0
20.02.2022,712,89.0
20.02.2022,713,83.0
20.02.2022,714,88.0
20.02.2022,715,80.5
20.02.2022,717,88.0
20.02.2022,718,85.5
20.02.2022,719,85.0
20.02.2022,720,83.0
20.02.2022,721,87.0
20.02.2022,722,80.0
20.02.2022,723,88.5
20.02.2022,724,82.0
20.02.2022,725,97.5
20.02.2022,726,92.5
20.02.2022,727,85.0
20.02.2022,728,86.0
20.02.2022,729,83.0
20.02.2022,730,77.0
20.02.2022,731,86.0
20.02.2022,732,74.0
20.02.2022,735,60.0
20.02.2022,736,81.0
20.02.2022,737,88.0
20.02.2022,738,86.0
20.02.2022,739,73.0
20.02.2022,753,103.0
20.02.2022,754,106.0
20.02.2022,755,92.0
20.02.2022,756,87.0
20.02.2022,757,88.0
20.02.2022,758,87.5
20.02.2022,759,84.0
20.02.2022,760,80.0
20.02.2022,761,86.0
20.02.2022,762,87.0
20.02.2022,763,88.0
20.02.2022,764,88.0
20.02.2022,765,82.0
20.02.2022,766,90.0
20.02.2022,767,85.5
20.02.2022,768,60.0
20.02.2022,769,93.0
20.02.2022,777,60.0
20.02.2022,790,116.0
20.02.2022,791,0.0
20.02.2022,792,84.0
20.02.2022,793,91.5
20.02.2022,794,92.0
20.02.2022,795,109.5
20.02.2022,796,88.5
20.02.2022,797,81.0
20.02.2022,798,75.0
20.02.2022,799,86.5
20.02.2022,800,0.0
20.02.2022,801,0.0
20.02.2022,802,0.0
20.02.2022,803,0.0
20.02.2022,804,0.0
20.02.2022,805,0.0
20.02.2022,806,33.0
20.02.2022,807,115.5
20.02.2022,808,122.0
20.02.2022,809,120.0
20.02.2022,810,127.0
20.02.2022,811,125.0
20.02.2022,812,128.5
20.02.2022,813,132.0
20.02.2022,814,134.0
20.02.2022,815,140.0
20.02.2022,816,139.0
20.02.2022,817,137.5
20.02.2022,818,146.0
20.02.2022,819,145.0
20.02.2022,820,147.0
20.02.2022,821,146.0
20.02.2022,822,140.0
20.02.2022,823,150.5
20.02.2022,824,146.0
20.02.2022,825,147.0
20.02.2022,826,145.5
20.02.2022,827,145.5
20.02.2022,828,142.0
20.02.2022,829,142.0
20.02.2022,830,142.0
20.02.2022,831,137.0
20.02.2022,832,142.0
20.02.2022,833,144.0
20.02.2022,834,143.0
20.02.2022,835,142.0
20.02.2022,836,139.0
20.02.2022,837,136.5
20.02.2022,838,142.0
20.02.2022,839,141.0
20.02.2022,840,139.0
20.02.2022,841,135.5
20.02.2022,842,134.0
20.02.2022,843,137.0
20.02.2022,844,137.0
20.02.2022,845,139.0
20.02.2022,846,139.0
20.02.2022,847,135.0
20.02.2022,848,146.5
20.02.2022,849,138.5
20.02.2022,850,139.5
20.02.2022,851,142.5
20.02.2022,852,132.0
20.02.2022,853,130.0
20.02.2022,854,135.0
20.02.2022,855,134.0
20.02.2022,856,127.0
20.02.2022,857,123.0
20.02.2022,858,172.0
20.02.2022,859,142.5
20.02.2022,860,150.0
20.02.2022,861,178.0
20.02.2022,862,169.0
20.02.2022,863,177.5
20.02.2022,864,133.0
20.02.2022,865,138.0
20.02.2022,866,143.0
20.02.2022,867,136.0
20.02.2022,868,145.0
20.02.2022,869,138.0
20.02.2022,870,129.5
20.02.2022,871,169.0
20.02.2022,872,201.5
20.02.2022,873,164.0
20.02.2022,874,116.0
20.02.2022,875,95.0
20.02.2022,876,151.0
20.02.2022,877,141.0
20.02.2022,878,152.0
20.02.2022,879,183.0
20.02.2022,880,179.0
20.02.2022,881,186.5
20.02.2022,882,227.0
20.02.2022,883,129.0
20.02.2022,884,145.5
20.02.2022,885,135.5
20.02.2022,886,151.0
20.02.2022,887,150.5
20.02.2022,888,136.0
20.02.2022,889,140.0
20.02.2022,890,143.0
20.02.2022,891,162.5
20.02.2022,892,128.0
20.02.2022,893,135.5
20.02.2022,894,141.0
20.02.2022,895,137.0
20.02.2022,896,134.0
20.02.2022,897,137.0
20.02.2022,898,139.0
20.02.2022,899,140.0
20.02.2022,900,137.0
20.02.2022,901,132.0
20.02.2022,902,136.5
20.02.2022,903,137.0
20.02.2022,904,146.0
20.02.2022,905,148.5
20.02.2022,906,140.0
20.02.2022,907,159.0
20.02.2022,908,160.5
20.02.2022,909,187.5
20.02.2022,910,210.0
20.02.2022,911,233.5
20.02.2022,912,241.0
20.02.2022,913,240.5
20.02.2022,914,311.5
20.02.2022,915,369.5
20.02.2022,916,327.5
20.02.2022,917,312.0
20.02.2022,918,300.0
20.02.2022,919,308.0
20.02.2022,962,60.0
20.02.2022,963,0.0
20.02.2022,964,0.0
20.02.2022,965,0.0
20.02.2022,1109,127.0
20.02.2022,1110,90.0
20.02.2022,1111,74.5
20.02.2022,1112,74.5
20.02.2022,1113,79.0
20.02.2022,1114,76.0
20.02.2022,1115,72.0
20.02.2022,1116,81.0
20.02.2022,1117,75.0
20.02.2022,1118,68.0
20.02.2022,1119,71.0
20.02.2022,1120,69.0
20.02.2022,1121,75.5
20.02.2022,1122,78.0
20.02.2022,1123,79.0
20.02.2022,1124,80.0
20.02.2022,1125,78.0
20.02.2022,1126,97.0
20.02.2022,1127,88.0
20.02.2022,1128,89.0
20.02.2022,1129,88.0
20.02.2022,1130,88.0
20.02.2022,1131,91.0
20.02.2022,1132,87.0
20.02.2022,1133,89.0
20.02.2022,1134,88.0
20.02.2022,1135,87.0
20.02.2022,1136,94.0
20.02.2022,1137,103.0
20.02.2022,1138,104.5
20.02.2022,1139,102.5
20.02.2022,1140,97.0
20.02.2022,1141,99.0
20.02.2022,1142,94.0
20.02.2022,1143,103.5
20.02.2022,1144,99.0
20.02.2022,1145,96.0
20.02.2022,1146,93.0
20.02.2022,1147,89.0
20.02.2022,1148,88.0
20.02.2022,1149,88.0
20.02.2022,1150,78.0
20.02.2022,1151,75.0
20.02.2022,1152,75.0
20.02.2022,1153,76.0
20.02.2022,1154,73.0
20.02.2022,1155,72.5
20.02.2022,1156,74.5
20.02.2022,1157,77.0
20.02.2022,1158,74.0
20.02.2022,1159,73.5
20.02.2022,1160,74.0
20.02.2022,1161,80.0
20.02.2022,1162,75.0
20.02.2022,1163,76.0
20.02.2022,1164,79.0
20.02.2022,1165,79.0
20.02.2022,1166,84.5
20.02.2022,1167,79.0
20.02.2022,1168,73.5
20.02.2022,1169,71.0
20.02.2022,1170,79.0
20.02.2022,1171,75.0
20.02.2022,1172,86.0
20.02.2022,1173,86.0
20.02.2022,1174,88.0
20.02.2022,1175,92.0
20.02.2022,1176,89.0
20.02.2022,1177,86.0
20.02.2022,1178,87.0
20.02.2022,1179,89.5
20.02.2022,1180,88.0
20.02.2022,1181,94.0
20.02.2022,1182,90.0
20.02.2022,1183,86.5
20.02.2022,1184,88.0
20.02.2022,1185,88.0
20.02.2022,1186,79.0
20.02.2022,1187,80.0
20.02.2022,1188,80.0
20.02.2022,1189,74.0
20.02.2022,1190,73.0
20.02.2022,1191,80.5
20.02.2022,1192,82.0
20.02.2022,1193,77.0
20.02.2022,1194,81.0
20.02.2022,1195,77.0
20.02.2022,1196,73.0
20.02.2022,1197,77.0
20.02.2022,1198,80.0
20.02.2022,1199,86.0
20.02.2022,1200,82.5
20.02.2022,1201,79.5
20.02.2022,1202,78.0
20.02.2022,1203,79.0
20.02.2022,1204,74.0
20.02.2022,1205,71.0
20.02.2022,1206,68.5
20.02.2022,1207,68.0
20.02.2022,1208,68.0
20.02.2022,1209,68.0
20.02.2022,1210,68.0
20.02.2022,1211,68.0
20.02.2022,1212,68.0
20.02.2022,1213,69.0
20.02.2022,1214,68.0
20.02.2022,1215,65.0
20.02.2022,1216,68.0
20.02.2022,1217,68.0
20.02.2022,1218,69.0
20.02.2022,1219,68.0
20.02.2022,1220,68.0
20.02.2022,1221,68.0
20.02.2022,1222,68.0
20.02.2022,1223,69.0
20.02.2022,1224,70.0
20.02.2022,1225,68.0
20.02.2022,1226,69.0
20.02.2022,1227,68.0
20.02.2022,1228,69.0
20.02.2022,1229,68.0
20.02.2022,1230,72.0
20.02.2022,1231,77.0
20.02.2022,1232,70.0
20.02.2022,1233,68.0
20.02.2022,1234,68.0
20.02.2022,1235,69.0
20.02.2022,1236,69.0
20.02.2022,1237,67.0
20.02.2022,1238,67.0
20.02.2022,1239,87.0
20.02.2022,1240,66.0
20.02.2022,1241,67.0
20.02.2022,1242,69.0
20.02.2022,1243,66.0
20.02.2022,1244,67.0
20.02.2022,1245,65.0
20.02.2022,1246,65.0
20.02.2022,1247,66.0
20.02.2022,1248,67.0
20.02.2022,1249,66.0
20.02.2022,1250,68.0
20.02.2022,1251,68.0
20.02.2022,1252,69.0
20.02.2022,1253,69.0
20.02.2022,1254,70.0
20.02.2022,1255,70.0
20.02.2022,1256,70.0
20.02.2022,1257,71.0
20.02.2022,1258,71.0
20.02.2022,1259,70.5
20.02.2022,1260,70.0
20.02.2022,1261,70.0
20.02.2022,1262,71.5
20.02.2022,1263,72.0
20.02.2022,1264,71.0
20.02.2022,1265,69.0
20.02.2022,1266,69.0
20.02.2022,1267,71.0
20.02.2022,1268,72.5
20.02.2022,1269,71.5
20.02.2022,1270,71.0
20.02.2022,1271,72.0
20.02.2022,1272,81.5
20.02.2022,1273,67.0
20.02.2022,1274,67.0
20.02.2022,1275,68.5
20.02.2022,1276,69.0
20.02.2022,1277,69.0
20.02.2022,1278,68.5
20.02.2022,1279,70.0
20.02.2022,1280,69.0
20.02.2022,1281,69.0
20.02.2022,1282,70.0
20.02.2022,1283,71.0
20.02.2022,1284,71.0
20.02.2022,1285,71.0
20.02.2022,1286,72.0
20.02.2022,1287,73.0
20.02.2022,1288,73.0
20.02.2022,1289,68.5
20.02.2022,1290,67.0
20.02.2022,1291,67.5
20.02.2022,1292,70.0
20.02.2022,1293,72.0
20.02.2022,1294,72.0
20.02.2022,1295,77.0
20.02.2022,1296,81.0
20.02.2022,1297,82.0
20.02.2022,1298,82.0
20.02.2022,1299,79.5
20.02.2022,1300,83.0
20.02.2022,1301,84.0
20.02.2022,1302,79.0
20.02.2022,1303,79.0
20.02.2022,1304,78.0
20.02.2022,1305,78.0
20.02.2022,1306,79.0
20.02.2022,1307,81.0
20.02.2022,1308,80.0
20.02.2022,1309,79.0
20.02.2022,1310,84.0
20.02.2022,1311,75.0
20.02.2022,1312,75.0
20.02.2022,1313,72.0
20.02.2022,1314,74.5
20.02.2022,1315,75.0
20.02.2022,1316,76.0
20.02.2022,1317,73.5
20.02.2022,1318,74.0
20.02.2022,1319,75.0
20.02.2022,1320,75.0
20.02.2022,1321,75.0
20.02.2022,1322,73.0
20.02.2022,1323,75.0
20.02.2022,1324,76.0
20.02.2022,1325,77.0
20.02.2022,1326,77.0
20.02.2022,1327,76.0
20.02.2022,1328,76.0
20.02.2022,1329,77.0
20.02.2022,1330,78.0
20.02.2022,1331,77.0
20.02.2022,1332,76.0
20.02.2022,1333,75.0
20.02.2022,1334,76.0
20.02.2022,1335,77.0
20.02.2022,1336,77.0
20.02.2022,1337,77.0
20.02.2022,1338,76.0
20.02.2022,1339,79.0
20.02.2022,1340,74.0
20.02.2022,1341,75.0
20.02.2022,1342,73.5
20.02.2022,1343,76.0
20.02.2022,1344,76.0
20.02.2022,1345,77.0
20.02.2022,1346,76.0
20.02.2022,1347,76.5
20.02.2022,1348,77.0
20.02.2022,1349,78.0
20.02.2022,1350,77.0
20.02.2022,1351,76.0
20.02.2022,1352,75.0
20.02.2022,1353,76.0
20.02.2022,1354,76.0
20.02.2022,1355,76.0
20.02.2022,1356,76.0
20.02.2022,1357,77.0
20.02.2022,1358,77.0
20.02.2022,1359,78.0
20.02.2022,1360,76.5
20.02.2022,1361,76.0
20.02.2022,1362,76.0
20.02.2022,1363,77.0
20.02.2022,1364,80.5
20.02.2022,1365,76.0
20.02.2022,1366,74.0
20.02.2022,1367,75.0
20.02.2022,1368,75.0
20.02.2022,1369,76.0
20.02.2022,1370,76.0
20.02.2022,1371,75.0
20.02.2022,1372,79.0
20.02.2022,1373,78.0
20.02.2022,1374,77.0
20.02.2022,1375,76.0
20.02.2022,1376,73.0
20.02.2022,1377,76.0
20.02.2022,1378,75.0
20.02.2022,1379,76.0
20.02.2022,1380,77.5
20.02.2022,1381,76.0
20.02.2022,1382,72.0
20.02.2022,1383,75.0
20.02.2022,1384,79.0
20.02.2022,1385,77.0
20.02.2022,1386,82.0
20.02.2022,1387,84.0
20.02.2022,1388,85.0
20.02.2022,1389,85.0
20.02.2022,1390,81.0
20.02.2022,1391,75.0
20.02.2022,1392,79.0
20.02.2022,1393,79.0
20.02.2022,1394,81.0
20.02.2022,1395,81.0
20.02.2022,1396,80.0
20.02.2022,1397,78.0
20.02.2022,1398,80.0
20.02.2022,1399,81.0
20.02.2022,1400,82.0
20.02.2022,1401,83.0
20.02.2022,1402,76.5
20.02.2022,1403,82.0
20.02.2022,1404,80.0
20.02.2022,1405,80.0
20.02.2022,1406,81.0
20.02.2022,1407,79.0
20.02.2022,1408,80.0
20.02.2022,1409,80.0
20.02.2022,1410,76.0
20.02.2022,1411,80.0
20.02.2022,1412,79.0
20.02.2022,1413,80.0
20.02.2022,1414,81.0
20.02.2022,1415,80.0
20.02.2022,1416,76.0
20.02.2022,1417,78.0
20.02.2022,1418,74.0
20.02.2022,1419,76.0
20.02.2022,1420,86.0
20.02.2022,1421,74.0
20.02.2022,1422,75.0
20.02.2022,1423,76.0
20.02.2022,1424,76.0
20.02.2022,1425,76.0
20.02.2022,1426,77.0
20.02.2022,1427,75.0
20.02.2022,1428,74.0
20.02.2022,1429,77.5
20.02.2022,1430,75.0
20.02.2022,1431,76.0
20.02.2022,1432,75.0
20.02.2022,1433,76.0
20.02.2022,1434,76.0
20.02.2022,1435,74.0
20.02.2022,1436,77.0
20.02.2022,1437,75.0
20.02.2022,1438,76.0
20.02.2022,1439,76.0
21.02.2022,0,80.0
21.02.2022,1,77.0
21.02.2022,2,75.0
21.02.2022,3,76.0
21.02.2022,4,77.0
21.02.2022,5,77.0
21.02.2022,6,76.0
21.02.2022,7,76.0
21.02.2022,8,77.0
21.02.2022,9,75.0
21.02.2022,10,77.0
21.02.2022,11,77.0
21.02.2022,12,78.0
21.02.2022,13,78.0
21.02.2022,14,69.5
21.02.2022,15,70.0
21.02.2022,16,75.0
21.02.2022,17,73.0
21.02.2022,18,75.0
21.02.2022,19,73.0
21.02.2022,20,73.0
21.02.2022,21,74.5
21.02.2022,22,74.0
21.02.2022,23,77.0
21.02.2022,24,74.0
21.02.2022,25,74.0
21.02.2022,26,76.0
21.02.2022,27,78.0
21.02.2022,28,75.0
21.02.2022,29,76.0
21.02.2022,30,75.0
21.02.2022,31,75.0
21.02.2022,32,76.0
21.02.2022,33,75.0
21.02.2022,34,76.0
21.02.2022,35,75.0
21.02.2022,36,76.0
21.02.2022,37,77.0
21.02.2022,38,72.5
21.02.2022,39,74.0
21.02.2022,40,76.0
21.02.2022,41,75.0
21.02.2022,42,74.0
21.02.2022,43,74.0
21.02.2022,44,77.0
21.02.2022,45,82.0
21.02.2022,46,85.0
21.02.2022,47,86.5
21.02.2022,48,84.0
21.02.2022,49,85.0
21.02.2022,50,85.0
21.02.2022,51,85.0
21.02.2022,52,83.0
21.02.2022,53,81.0
21.02.2022,54,81.0
21.02.2022,55,82.0
21.02.2022,56,82.5
21.02.2022,57,81.0
21.02.2022,58,81.0
21.02.2022,59,82.5
21.02.2022,60,82.0
21.02.2022,61,81.0
21.02.2022,62,73.0
21.02.2022,63,74.0
21.02.2022,64,80.0
21.02.2022,65,83.0
21.02.2022,66,80.0
21.02.2022,67,78.0
21.02.2022,68,78.0
21.02.2022,69,79.0
21.02.2022,70,82.0
21.02.2022,71,80.0
21.02.2022,72,78.5
21.02.2022,73,81.0
21.02.2022,74,84.0
21.02.2022,75,82.0
21.02.2022,76,81.0
21.02.2022,77,82.0
21.02.2022,78,88.0
21.02.2022,79,83.0
21.02.2022,80,85.0
21.02.2022,81,80.0
21.02.2022,82,82.0
21.02.2022,83,81.0
21.02.2022,84,80.0
21.02.2022,85,81.0
21.02.2022,86,79.0
21.02.2022,87,79.0
21.02.2022,88,77.0
21.02.2022,89,83.5
21.02.2022,90,69.0
21.02.2022,91,75.0
21.02.2022,92,76.0
21.02.2022,93,77.0
21.02.2022,94,75.0
21.02.2022,95,74.0
21.02.2022,96,74.0
21.02.2022,97,76.0
21.02.2022,98,76.0
21.02.2022,99,75.0
21.02.2022,100,76.5
21.02.2022,101,74.0
21.02.2022,102,73.0
21.02.2022,103,74.0
21.02.2022,104,72.0
21.02.2022,105,74.0
21.02.2022,106,73.0
21.02.2022,107,73.0
21.02.2022,108,74.0
21.02.2022,109,74.5
21.02.2022,110,73.0
21.02.2022,111,75.0
21.02.2022,112,75.0
21.02.2022,113,75.0
21.02.2022,114,74.0
21.02.2022,115,73.0
21.02.2022,116,72.5
21.02.2022,117,73.0
21.02.2022,118,73.0
21.02.2022,119,74.0
21.02.2022,120,73.0
21.02.2022,121,74.0
21.02.2022,122,75.0
21.02.2022,123,73.0
21.02.2022,124,74.0
21.02.2022,125,75.5
21.02.2022,126,73.5
21.02.2022,127,75.0
21.02.2022,128,75.0
21.02.2022,129,76.0
21.02.2022,130,72.5
21.02.2022,131,74.0
21.02.2022,132,74.5
21.02.2022,133,74.0
21.02.2022,134,74.0
21.02.2022,135,72.0
21.02.2022,136,73.0
21.02.2022,137,77.0
21.02.2022,138,76.0
21.02.2022,139,66.0
21.02.2022,140,69.0
21.02.2022,141,70.0
21.02.2022,142,70.0
21.02.2022,143,71.0
21.02.2022,144,71.0
21.02.2022,145,71.0
21.02.2022,146,70.0
21.02.2022,147,77.0
21.02.2022,148,72.0
21.02.2022,149,71.0
21.02.2022,150,73.0
21.02.2022,151,72.0
21.02.2022,152,71.0
21.02.2022,153,72.0
21.02.2022,154,71.0
21.02.2022,155,71.0
21.02.2022,156,72.0
21.02.2022,157,73.0
21.02.2022,158,74.5
21.02.2022,159,66.0
21.02.2022,160,65.5
21.02.2022,161,65.5
21.02.2022,162,68.0
21.02.2022,163,72.0
21.02.2022,164,72.0
21.02.2022,165,74.0
21.02.2022,166,73.0
21.02.2022,167,79.0
21.02.2022,168,78.0
21.02.2022,169,78.0
21.02.2022,170,81.0
21.02.2022,171,77.0
21.02.2022,172,81.0
21.02.2022,173,80.0
21.02.2022,174,74.0
21.02.2022,175,74.0
21.02.2022,176,79.5
21.02.2022,177,75.5
21.02.2022,178,71.0
21.02.2022,179,80.0
21.02.2022,180,81.0
21.02.2022,181,78.0
21.02.2022,182,75.0
21.02.2022,183,78.0
21.02.2022,184,74.5
21.02.2022,185,76.0
21.02.2022,186,81.0
21.02.2022,187,79.0
21.02.2022,188,78.0
21.02.2022,189,73.0
21.02.2022,190,77.0
21.02.2022,191,78.0
21.02.2022,192,76.0
21.02.2022,193,75.0
21.02.2022,194,76.0
21.02.2022,195,75.0
21.02.2022,196,75.0
21.02.2022,197,70.0
21.02.2022,198,71.0
21.02.2022,199,70.0
21.02.2022,200,75.5
21.02.2022,201,78.0
21.02.2022,202,73.0
21.02.2022,203,68.5
21.02.2022,204,73.0
21.02.2022,205,70.5
21.02.2022,206,69.0
21.02.2022,207,81.0
21.02.2022,208,66.0
21.02.2022,209,68.0
21.02.2022,210,70.0
21.02.2022,211,66.0
21.02.2022,212,68.0
21.02.2022,213,69.0
21.02.2022,214,68.0
21.02.2022,215,68.0
21.02.2022,216,67.0
21.02.2022,217,70.0
21.02.2022,218,66.5
21.02.2022,219,70.0
21.02.2022,220,70.0
21.02.2022,221,69.0
21.02.2022,222,70.0
21.02.2022,223,69.0
21.02.2022,224,71.0
21.02.2022,225,70.0
21.02.2022,226,71.5
21.02.2022,227,70.0
21.02.2022,228,70.0
21.02.2022,229,69.0
21.02.2022,230,71.0
21.02.2022,231,69.0
21.02.2022,232,80.0
21.02.2022,233,65.0
21.02.2022,234,65.0
21.02.2022,235,66.0
21.02.2022,236,66.0
21.02.2022,237,65.0
21.02.2022,238,65.0
21.02.2022,239,67.0
21.02.2022,240,65.5
21.02.2022,241,67.0
21.02.2022,242,66.0
21.02.2022,243,65.0
21.02.2022,244,65.0
21.02.2022,245,66.0
21.02.2022,246,66.0
21.02.2022,247,67.0
21.02.2022,248,66.0
21.02.2022,249,66.0
21.02.2022,250,68.0
21.02.2022,251,69.0
21.02.2022,252,66.0
21.02.2022,253,67.0
21.02.2022,254,68.0
21.02.2022,255,71.0
21.02.2022,256,67.0
21.02.2022,257,68.5
21.02.2022,258,68.0
21.02.2022,259,66.0
21.02.2022,260,67.5
21.02.2022,261,68.0
21.02.2022,262,74.0
21.02.2022,263,76.0
21.02.2022,264,87.0
21.02.2022,265,79.5
21.02.2022,266,67.0
21.02.2022,267,71.0
21.02.2022,268,73.0
21.02.2022,269,71.5
21.02.2022,270,68.0
21.02.2022,271,71.0
21.02.2022,272,71.0
21.02.2022,273,74.0
21.02.2022,274,73.0
21.02.2022,275,79.0
21.02.2022,276,76.0
21.02.2022,277,75.0
21.02.2022,278,76.0
21.02.2022,279,76.0
21.02.2022,280,86.0
21.02.2022,281,84.5
21.02.2022,282,75.0
21.02.2022,283,79.0
21.02.2022,284,77.0
21.02.2022,285,76.0
21.02.2022,286,74.0
21.02.2022,287,73.0
21.02.2022,288,74.0
21.02.2022,289,74.0
21.02.2022,290,77.0
21.02.2022,291,77.0
21.02.2022,292,76.0
21.02.2022,293,78.0
21.02.2022,294,78.0
21.02.2022,295,76.0
21.02.2022,296,80.0
21.02.2022,297,78.0
21.02.2022,298,78.0
21.02.2022,299,74.0
21.02.2022,300,75.5
21.02.2022,301,79.0
21.02.2022,302,75.0
21.02.2022,303,76.0
21.02.2022,304,74.0
21.02.2022,305,76.0
21.02.2022,306,76.0
21.02.2022,307,73.0
21.02.2022,308,72.0
21.02.2022,309,88.0
21.02.2022,310,82.0
21.02.2022,311,78.0
21.02.2022,312,77.0
21.02.2022,313,75.0
21.02.2022,314,77.0
21.02.2022,315,81.5
21.02.2022,316,79.0
21.02.2022,317,92.0
21.02.2022,318,99.0
21.02.2022,319,113.0
21.02.2022,320,99.0
21.02.2022,321,101.0
21.02.2022,322,122.0
21.02.2022,323,102.0
21.02.2022,324,103.0
21.02.2022,325,104.0
21.02.2022,326,110.0
21.02.2022,327,107.0
21.02.2022,328,112.0
21.02.2022,329,110.0
21.02.2022,330,105.0
21.02.2022,331,97.0
21.02.2022,332,94.0
21.02.2022,333,95.0
21.02.2022,334,89.0
21.02.2022,335,89.0
21.02.2022,336,95.0
21.02.2022,337,98.5
21.02.2022,338,77.0
21.02.2022,339,77.5
21.02.2022,340,102.0
21.02.2022,341,92.5
21.02.2022,342,108.0
21.02.2022,343,95.5
21.02.2022,344,93.0
21.02.2022,345,94.0
21.02.2022,346,108.5
21.02.2022,347,106.0
21.02.2022,348,99.5
21.02.2022,349,103.0
21.02.2022,350,106.0
21.02.2022,351,141.0
21.02.2022,352,122.0
21.02.2022,353,116.5
21.02.2022,354,97.0
21.02.2022,355,107.0
21.02.2022,356,132.5
21.02.2022,357,135.0
21.02.2022,358,120.0
21.02.2022,359,124.0
21.02.2022,360,126.5
21.02.2022,361,123.0
21.02.2022,362,115.0
21.02.2022,363,119.0
21.02.2022,364,117.0
21.02.2022,365,116.0
21.02.2022,366,116.5
21.02.2022,367,113.0
21.02.2022,368,114.5
21.02.2022,369,113.0
21.02.2022,370,113.0
21.02.2022,371,116.0
21.02.2022,372,115.0
21.02.2022,373,109.0
21.02.2022,374,117.0
21.02.2022,375,110.0
21.02.2022,376,115.0
21.02.2022,377,117.0
21.02.2022,378,113.0
21.02.2022,379,115.0
21.02.2022,380,109.0
21.02.2022,381,113.0
21.02.2022,382,110.0
21.02.2022,383,109.0
21.02.2022,384,111.0
21.02.2022,385,113.0
21.02.2022,386,109.0
21.02.2022,387,110.0
21.02.2022,388,110.0
21.02.2022,389,112.0
21.02.2022,390,108.0
21.02.2022,391,107.0
21.02.2022,392,121.0
21.02.2022,393,117.0
21.02.2022,394,116.5
21.02.2022,395,114.0
21.02.2022,396,121.5
21.02.2022,397,121.0
21.02.2022,398,120.0
21.02.2022,399,120.0
21.02.2022,400,113.0
21.02.2022,401,121.0
21.02.2022,402,119.0
21.02.2022,403,115.0
21.02.2022,404,116.0
21.02.2022,405,115.0
21.02.2022,406,115.0
21.02.2022,407,114.5
21.02.2022,408,114.0
21.02.2022,409,115.0
21.02.2022,410,111.0
21.02.2022,411,117.0
21.02.2022,412,112.0
21.02.2022,413,122.0
21.02.2022,414,127.0
21.02.2022,415,117.0
21.02.2022,416,113.0
21.02.2022,417,110.0
21.02.2022,418,111.0
21.02.2022,419,109.0
21.02.2022,420,109.0
21.02.2022,421,108.0
21.02.2022,422,100.5
21.02.2022,423,105.0
21.02.2022,424,100.0
21.02.2022,425,98.0
21.02.2022,426,99.0
21.02.2022,427,108.0
21.02.2022,428,106.0
21.02.2022,429,97.0
21.02.2022,430,102.5
21.02.2022,431,101.0
21.02.2022,432,99.0
21.02.2022,433,98.0
21.02.2022,434,98.0
21.02.2022,435,94.0
21.02.2022,436,96.0
21.02.2022,437,98.0
21.02.2022,438,99.5
21.02.2022,439,97.0
21.02.2022,440,97.5
21.02.2022,441,94.5
21.02.2022,442,98.0
21.02.2022,443,115.0
21.02.2022,444,110.0
21.02.2022,445,113.5
21.02.2022,446,114.5
21.02.2022,447,123.0
21.02.2022,448,115.0
21.02.2022,449,116.0
21.02.2022,450,114.0
21.02.2022,451,114.0
21.02.2022,452,114.0
21.02.2022,453,111.0
21.02.2022,454,127.5
21.02.2022,455,135.0
21.02.2022,456,121.0
21.02.2022,457,127.0
21.02.2022,458,119.0
21.02.2022,459,112.5
21.02.2022,460,113.0
21.02.2022,461,115.0
21.02.2022,462,107.5
21.02.2022,463,127.0
21.02.2022,464,134.0
21.02.2022,465,121.0
21.02.2022,466,123.0
21.02.2022,467,146.5
21.02.2022,468,158.0
21.02.2022,469,142.0
21.02.2022,470,135.0
21.02.2022,471,117.0
21.02.2022,472,135.0
21.02.2022,473,135.0
21.02.2022,474,133.0
21.02.2022,475,140.0
21.02.2022,476,132.0
21.02.2022,477,130.0
21.02.2022,478,130.0
21.02.2022,479,126.0
21.02.2022,480,115.5
21.02.2022,481,112.0
21.02.2022,482,111.0
21.02.2022,483,115.0
21.02.2022,484,125.0
21.02.2022,485,117.0
21.02.2022,486,119.0
21.02.2022,487,116.0
21.02.2022,488,115.5
21.02.2022,489,105.0
21.02.2022,490,104.0
21.02.2022,491,98.5
21.02.2022,492,93.0
21.02.2022,493,94.0
21.02.2022,494,97.0
21.02.2022,495,96.0
21.02.2022,496,93.0
21.02.2022,497,98.0
21.02.2022,498,86.0
21.02.2022,499,88.5
21.02.2022,500,93.0
21.02.2022,501,95.0
21.02.2022,502,95.5
21.02.2022,503,89.0
21.02.2022,504,91.0
21.02.2022,505,97.0
21.02.2022,506,86.5
21.02.2022,507,104.0
21.02.2022,508,91.0
21.02.2022,509,93.0
21.02.2022,510,90.0
21.02.2022,511,94.5
21.02.2022,512,96.5
21.02.2022,513,88.0
21.02.2022,514,89.0
21.02.2022,515,89.0
21.02.2022,516,89.0
21.02.2022,517,91.0
21.02.2022,518,92.0
21.02.2022,519,88.0
21.02.2022,520,90.0
21.02.2022,521,92.0
21.02.2022,522,94.0
21.02.2022,523,89.0
21.02.2022,524,93.0
21.02.2022,525,88.0
21.02.2022,526,93.0
21.02.2022,527,94.0
21.02.2022,528,96.0
21.02.2022,529,89.0
21.02.2022,530,94.0
21.02.2022,531,90.0
21.02.2022,532,92.5
21.02.2022,533,92.0
21.02.2022,534,92.0
21.02.2022,535,88.5
21.02.2022,536,91.0
21.02.2022,537,88.0
21.02.2022,538,88.0
21.02.2022,539,86.0
21.02.2022,540,86.0
21.02.2022,541,88.0
21.02.2022,542,88.5
21.02.2022,543,85.0
21.02.2022,544,83.0
21.02.2022,545,87.0
21.02.2022,546,85.5
21.02.2022,547,87.0
21.02.2022,548,86.0
21.02.2022,549,91.5
21.02.2022,550,108.0
21.02.2022,551,101.0
21.02.2022,552,104.0
21.02.2022,553,86.5
21.02.2022,554,88.0
21.02.2022,555,89.0
21.02.2022,556,87.0
21.02.2022,557,87.0
21.02.2022,558,91.0
21.02.2022,559,89.0
21.02.2022,560,85.0
21.02.2022,561,86.0
21.02.2022,562,87.0
21.02.2022,563,87.0
21.02.2022,564,93.0
21.02.2022,565,90.0
21.02.2022,566,87.0
21.02.2022,567,84.0
21.02.2022,568,88.0
21.02.2022,569,91.0
21.02.2022,570,89.0
21.02.2022,571,100.0
21.02.2022,572,87.0
21.02.2022,573,83.0
21.02.2022,574,82.0
21.02.2022,575,86.0
21.02.2022,576,87.5
21.02.2022,577,88.0
21.02.2022,578,94.0
21.02.2022,579,100.5
21.02.2022,580,109.0
21.02.2022,581,114.0
21.02.2022,582,100.0
21.02.2022,583,98.0
21.02.2022,584,95.0
21.02.2022,585,85.0
21.02.2022,586,86.0
21.02.2022,587,84.5
21.02.2022,588,81.0
21.02.2022,589,79.0
21.02.2022,590,86.0
21.02.2022,591,81.0
21.02.2022,592,83.0
21.02.2022,593,81.5
21.02.2022,594,88.0
21.02.2022,595,79.0
21.02.2022,596,81.5
21.02.2022,597,79.0
21.02.2022,598,80.0
21.02.2022,599,81.5
21.02.2022,600,81.5
21.02.2022,601,82.0
21.02.2022,602,83.0
21.02.2022,603,81.0
21.02.2022,604,81.0
21.02.2022,605,86.0
21.02.2022,606,83.0
21.02.2022,607,85.0
21.02.2022,608,81.5
21.02.2022,609,81.0
21.02.2022,610,79.0
21.02.2022,611,81.0
21.02.2022,612,86.0
21.02.2022,613,81.0
21.02.2022,614,84.0
21.02.2022,615,83.0
21.02.2022,616,85.0
21.02.2022,617,84.0
21.02.2022,618,80.0
21.02.2022,619,84.0
21.02.2022,620,80.0
21.02.2022,621,83.0
21.02.2022,622,83.0
21.02.2022,623,86.0
21.02.2022,624,81.0
21.02.2022,625,82.0
21.02.2022,626,80.0
21.02.2022,627,84.0
21.02.2022,628,86.5
21.02.2022,629,82.0
21.02.2022,630,81.0
21.02.2022,631,84.0
21.02.2022,632,80.5
21.02.2022,633,86.5
21.02.2022,634,86.0
21.02.2022,635,87.0
21.02.2022,636,82.0
21.02.2022,637,81.0
21.02.2022,638,84.0
21.02.2022,639,87.0
21.02.2022,640,85.0
21.02.2022,641,87.0
21.02.2022,642,85.0
21.02.2022,643,86.0
21.02.2022,644,88.0
21.02.2022,645,86.0
21.02.2022,646,85.0
21.02.2022,647,87.0
21.02.2022,648,84.0
21.02.2022,649,91.0
21.02.2022,650,88.0
21.02.2022,651,89.0
21.02.2022,652,84.0
21.02.2022,653,92.0
21.02.2022,654,88.0
21.02.2022,655,90.0
21.02.2022,656,89.0
21.02.2022,657,86.0
21.02.2022,658,86.0
21.02.2022,659,88.5
21.02.2022,660,86.0
21.02.2022,661,88.0
21.02.2022,662,92.0
21.02.2022,663,86.0
21.02.2022,664,88.0
21.02.2022,665,88.0
21.02.2022,666,94.0
21.02.2022,667,93.0
21.02.2022,668,105.0
21.02.2022,669,105.5
21.02.2022,670,113.0
21.02.2022,671,104.0
21.02.2022,672,93.0
21.02.2022,673,95.0
21.02.2022,674,91.5
21.02.2022,675,91.0
21.02.2022,676,91.0
21.02.2022,677,87.0
21.02.2022,678,90.0
21.02.2022,679,89.0
21.02.2022,680,89.0
21.02.2022,681,87.0
21.02.2022,682,90.0
21.02.2022,683,87.0
21.02.2022,684,88.0
21.02.2022,685,87.0
21.02.2022,686,91.0
21.02.2022,687,88.0
21.02.2022,688,86.0
21.02.2022,689,87.0
21.02.2022,690,90.0
21.02.2022,691,88.0
21.02.2022,692,88.0
21.02.2022,693,89.0
21.02.2022,694,87.0
21.02.2022,695,96.5
21.02.2022,696,90.0
21.02.2022,697,89.0
21.02.2022,698,88.0
21.02.2022,699,88.0
21.02.2022,700,89.0
21.02.2022,701,89.0
21.02.2022,702,85.0
21.02.2022,703,86.0
21.02.2022,704,88.0
21.02.2022,705,90.0
21.02.2022,706,90.0
21.02.2022,707,88.0
21.02.2022,708,88.0
21.02.2022,709,91.5
21.02.2022,710,87.0
21.02.2022,711,85.0
21.02.2022,712,87.0
21.02.2022,713,88.0
21.02.2022,714,88.0
21.02.2022,715,90.0
21.02.2022,716,81.0
21.02.2022,717,81.0
21.02.2022,718,83.0
21.02.2022,719,85.0
21.02.2022,720,86.0
21.02.2022,721,88.0
21.02.2022,722,91.0
21.02.2022,723,88.0
21.02.2022,724,88.0
21.02.2022,725,90.0
21.02.2022,726,87.0
21.02.2022,727,89.0
21.02.2022,728,87.5
21.02.2022,729,89.0
21.02.2022,730,89.0
21.02.2022,731,89.0
21.02.2022,732,97.0
21.02.2022,733,97.0
21.02.2022,734,91.0
21.02.2022,735,88.5
21.02.2022,736,91.0
21.02.2022,737,97.0
21.02.2022,738,93.0
21.02.2022,739,96.0
21.02.2022,740,96.5
21.02.2022,741,91.5
21.02.2022,742,89.0
21.02.2022,743,98.0
21.02.2022,744,96.0
21.02.2022,745,92.0
21.02.2022,746,89.0
21.02.2022,747,91.0
21.02.2022,748,95.0
21.02.2022,749,95.0
21.02.2022,750,97.0
21.02.2022,751,93.0
21.02.2022,752,87.0
21.02.2022,753,96.0
21.02.2022,754,92.0
21.02.2022,755,92.0
21.02.2022,756,91.5
21.02.2022,757,96.0
21.02.2022,758,95.5
21.02.2022,759,93.5
21.02.2022,760,89.0
21.02.2022,761,88.0
21.02.2022,762,92.0
21.02.2022,763,89.0
21.02.2022,764,96.0
21.02.2022,765,90.5
21.02.2022,766,91.0
21.02.2022,767,89.0
21.02.2022,768,88.0
21.02.2022,769,89.0
21.02.2022,770,88.0
21.02.2022,771,89.0
21.02.2022,772,89.0
21.02.2022,773,90.0
21.02.2022,774,90.0
21.02.2022,775,88.0
21.02.2022,776,89.0
21.02.2022,777,88.0
21.02.2022,778,92.0
21.02.2022,779,89.0
21.02.2022,780,91.0
21.02.2022,781,93.0
21.02.2022,782,93.0
21.02.2022,783,91.0
21.02.2022,784,89.0
21.02.2022,785,90.0
21.02.2022,786,88.0
21.02.2022,787,88.0
21.02.2022,788,90.0
21.02.2022,789,89.0
21.02.2022,790,93.0
21.02.2022,791,92.0
21.02.2022,792,88.5
21.02.2022,793,92.0
21.02.2022,794,95.0
21.02.2022,795,91.0
21.02.2022,796,93.0
21.02.2022,797,90.5
21.02.2022,798,91.0
21.02.2022,799,92.0
21.02.2022,800,112.0
21.02.2022,801,90.0
21.02.2022,802,103.0
21.02.2022,803,108.0
21.02.2022,804,104.0
21.02.2022,805,104.0
21.02.2022,806,103.0
21.02.2022,807,102.0
21.02.2022,808,102.0
21.02.2022,809,98.0
21.02.2022,810,98.0
21.02.2022,811,100.0
21.02.2022,812,103.0
21.02.2022,813,100.0
21.02.2022,814,103.0
21.02.2022,815,101.5
21.02.2022,816,106.0
21.02.2022,817,106.0
21.02.2022,818,105.0
21.02.2022,819,106.0
21.02.2022,820,111.0
21.02.2022,821,111.0
21.02.2022,822,109.0
21.02.2022,823,112.5
21.02.2022,824,92.0
21.02.2022,825,97.0
21.02.2022,826,88.0
21.02.2022,827,90.0
21.02.2022,828,93.0
21.02.2022,829,92.0
21.02.2022,830,88.0
21.02.2022,831,88.0
21.02.2022,832,90.0
21.02.2022,833,91.0
21.02.2022,834,90.0
21.02.2022,835,124.0
21.02.2022,836,129.0
21.02.2022,837,133.0
21.02.2022,838,121.0
21.02.2022,839,136.5
21.02.2022,840,153.0
21.02.2022,841,145.5
21.02.2022,842,128.0
21.02.2022,843,100.0
21.02.2022,844,105.0
21.02.2022,845,105.0
21.02.2022,846,102.0
21.02.2022,847,109.0
21.02.2022,848,112.0
21.02.2022,849,125.0
21.02.2022,850,121.0
21.02.2022,851,122.0
21.02.2022,852,115.0
21.02.2022,853,114.0
21.02.2022,854,115.0
21.02.2022,855,117.0
21.02.2022,856,115.0
21.02.2022,857,115.0
21.02.2022,858,116.0
21.02.2022,859,117.0
21.02.2022,860,113.0
21.02.2022,861,112.5
21.02.2022,862,108.5
21.02.2022,863,115.0
21.02.2022,864,113.0
21.02.2022,865,117.0
21.02.2022,866,110.0
21.02.2022,867,113.0
21.02.2022,868,113.0
21.02.2022,869,112.0
21.02.2022,870,117.0
21.02.2022,871,129.5
21.02.2022,872,119.0
21.02.2022,873,109.0
21.02.2022,874,110.0
21.02.2022,875,124.0
21.02.2022,876,121.0
21.02.2022,877,124.0
21.02.2022,878,121.0
21.02.2022,879,120.0
21.02.2022,880,119.0
21.02.2022,881,118.0
21.02.2022,882,121.0
21.02.2022,883,108.0
21.02.2022,884,119.0
21.02.2022,885,114.5
21.02.2022,886,109.0
21.02.2022,887,106.0
21.02.2022,888,102.0
21.02.2022,889,103.0
21.02.2022,890,101.0
21.02.2022,891,91.5
21.02.2022,892,93.0
21.02.2022,893,93.0
21.02.2022,894,96.0
21.02.2022,895,92.0
21.02.2022,896,99.0
21.02.2022,897,95.0
21.02.2022,898,101.0
21.02.2022,899,97.0
21.02.2022,900,92.0
21.02.2022,901,93.0
21.02.2022,902,97.0
21.02.2022,903,96.0
21.02.2022,904,95.0
21.02.2022,905,94.0
21.02.2022,906,95.0
21.02.2022,907,90.0
21.02.2022,908,96.0
21.02.2022,909,91.0
21.02.2022,910,91.5
21.02.2022,911,96.0
21.02.2022,912,94.0
21.02.2022,913,92.0
21.02.2022,914,95.0
21.02.2022,915,95.5
21.02.2022,916,93.0
21.02.2022,917,94.0
21.02.2022,918,97.0
21.02.2022,919,92.5
21.02.2022,920,92.0
21.02.2022,921,87.5
21.02.2022,922,89.0
21.02.2022,923,86.0
21.02.2022,924,106.0
21.02.2022,925,104.0
21.02.2022,926,105.0
21.02.2022,927,105.0
21.02.2022,928,100.0
21.02.2022,929,98.0
21.02.2022,930,106.0
21.02.2022,931,100.0
21.02.2022,932,102.0
21.02.2022,933,102.0
21.02.2022,934,101.5
21.02.2022,935,92.0
21.02.2022,936,97.0
21.02.2022,937,96.5
21.02.2022,938,97.0
21.02.2022,939,94.0
21.02.2022,940,112.0
21.02.2022,941,91.0
21.02.2022,942,114.5
21.02.2022,943,110.5
21.02.2022,944,103.0
21.02.2022,945,93.5
21.02.2022,946,93.0
21.02.2022,947,93.0
21.02.2022,948,95.0
21.02.2022,949,112.0
21.02.2022,950,109.0
21.02.2022,951,110.0
21.02.2022,952,110.0
21.02.2022,953,106.5
21.02.2022,954,110.0
21.02.2022,955,103.0
21.02.2022,956,88.0
21.02.2022,957,89.5
21.02.2022,958,101.0
21.02.2022,959,109.0
21.02.2022,960,106.5
21.02.2022,961,106.0
21.02.2022,962,111.0
21.02.2022,963,109.0
21.02.2022,964,104.0
21.02.2022,965,87.0
21.02.2022,966,93.0
21.02.2022,967,94.0
21.02.2022,968,94.0
21.02.2022,969,93.0
21.02.2022,970,97.0
21.02.2022,971,107.0
21.02.2022,972,101.5
21.02.2022,973,100.0
21.02.2022,974,100.5
21.02.2022,975,100.0
21.02.2022,976,98.0
21.02.2022,977,96.0
21.02.2022,978,90.0
21.02.2022,979,92.0
21.02.2022,980,92.0
21.02.2022,981,97.0
21.02.2022,982,95.0
21.02.2022,983,94.0
21.02.2022,984,93.0
21.02.2022,985,89.0
21.02.2022,986,90.0
21.02.2022,987,92.0
21.02.2022,988,93.0
21.02.2022,989,90.5
21.02.2022,990,93.0
21.02.2022,991,94.0
21.02.2022,992,91.0
21.02.2022,993,92.0
21.02.2022,994,91.0
21.02.2022,995,89.0
21.02.2022,996,93.0
21.02.2022,997,94.0
21.02.2022,998,94.0
21.02.2022,999,92.0
21.02.2022,1000,90.0
21.02.2022,1001,89.0
21.02.2022,1002,94.0
21.02.2022,1003,88.0
21.02.2022,1004,100.0
21.02.2022,1005,99.0
21.02.2022,1006,107.0
21.02.2022,1007,107.5
21.02.2022,1008,105.0
21.02.2022,1009,104.0
21.02.2022,1010,105.0
21.02.2022,1011,105.5
21.02.2022,1012,109.0
21.02.2022,1013,106.0
21.02.2022,1014,111.0
21.02.2022,1015,110.0
21.02.2022,1016,111.0
21.02.2022,1017,114.0
21.02.2022,1018,115.0
21.02.2022,1019,116.0
21.02.2022,1020,114.0
21.02.2022,1021,106.0
21.02.2022,1022,98.5
21.02.2022,1023,102.0
21.02.2022,1024,97.0
21.02.2022,1025,103.0
21.02.2022,1026,100.0
21.02.2022,1027,104.0
21.02.2022,1028,102.5
21.02.2022,1029,103.0
21.02.2022,1030,108.0
21.02.2022,1031,103.0
21.02.2022,1032,107.0
21.02.2022,1033,107.0
21.02.2022,1034,104.0
21.02.2022,1035,97.5
21.02.2022,1036,98.0
21.02.2022,1037,101.0
21.02.2022,1038,104.0
21.02.2022,1039,104.0
21.02.2022,1040,100.0
21.02.2022,1041,103.0
21.02.2022,1042,101.5
21.02.2022,1043,100.0
21.02.2022,1044,103.0
21.02.2022,1045,101.0
21.02.2022,1046,106.0
21.02.2022,1047,103.0
21.02.2022,1048,103.5
21.02.2022,1049,106.5
21.02.2022,1050,105.0
21.02.2022,1051,104.0
21.02.2022,1052,118.5
21.02.2022,1053,128.5
21.02.2022,1054,122.0
21.02.2022,1055,106.0
21.02.2022,1056,105.0
21.02.2022,1057,106.0
21.02.2022,1058,123.0
21.02.2022,1059,121.0
21.02.2022,1060,102.0
21.02.2022,1061,105.0
21.02.2022,1062,123.0
21.02.2022,1063,119.0
21.02.2022,1064,121.0
21.02.2022,1065,120.0
21.02.2022,1066,117.5
21.02.2022,1067,112.0
21.02.2022,1068,92.0
21.02.2022,1069,89.0
21.02.2022,1070,88.0
21.02.2022,1071,86.0
21.02.2022,1072,88.0
21.02.2022,1073,88.0
21.02.2022,1074,87.0
21.02.2022,1075,88.0
21.02.2022,1076,89.0
21.02.2022,1077,90.0
21.02.2022,1078,97.0
21.02.2022,1079,92.0
21.02.2022,1080,112.0
21.02.2022,1081,108.5
21.02.2022,1082,114.5
21.02.2022,1083,111.0
21.02.2022,1084,105.0
21.02.2022,1085,101.0
21.02.2022,1086,104.0
21.02.2022,1087,113.0
21.02.2022,1088,111.0
21.02.2022,1089,115.0
21.02.2022,1090,111.5
21.02.2022,1091,105.0
21.02.2022,1092,113.0
21.02.2022,1093,110.0
21.02.2022,1094,107.0
21.02.2022,1095,87.0
21.02.2022,1096,86.0
21.02.2022,1097,86.0
21.02.2022,1098,82.0
21.02.2022,1099,80.0
21.02.2022,1100,86.0
21.02.2022,1101,87.0
21.02.2022,1102,87.0
21.02.2022,1103,86.0
21.02.2022,1104,85.5
21.02.2022,1105,87.0
21.02.2022,1106,88.5
21.02.2022,1107,89.0
21.02.2022,1108,90.5
21.02.2022,1109,88.0
21.02.2022,1110,88.0
21.02.2022,1111,87.0
21.02.2022,1112,85.5
21.02.2022,1113,82.0
21.02.2022,1114,84.0
21.02.2022,1115,84.0
21.02.2022,1116,83.0
21.02.2022,1117,80.0
21.02.2022,1118,81.0
21.02.2022,1119,86.0
21.02.2022,1120,85.0
21.02.2022,1121,95.0
21.02.2022,1122,106.0
21.02.2022,1123,105.0
21.02.2022,1124,97.5
21.02.2022,1125,99.0
21.02.2022,1126,95.0
21.02.2022,1127,93.5
21.02.2022,1128,99.0
21.02.2022,1129,100.0
21.02.2022,1130,96.0
21.02.2022,1131,110.0
21.02.2022,1132,105.0
21.02.2022,1133,101.0
21.02.2022,1134,104.0
21.02.2022,1135,105.0
21.02.2022,1136,101.0
21.02.2022,1137,103.0
21.02.2022,1138,106.0
21.02.2022,1139,101.5
21.02.2022,1140,105.0
21.02.2022,1141,112.5
21.02.2022,1142,109.0
21.02.2022,1143,103.0
21.02.2022,1144,108.0
21.02.2022,1145,107.0
21.02.2022,1146,104.0
21.02.2022,1147,106.0
21.02.2022,1148,104.5
21.02.2022,1149,105.0
21.02.2022,1150,105.0
21.02.2022,1151,107.0
21.02.2022,1152,112.0
21.02.2022,1153,108.0
21.02.2022,1154,115.0
21.02.2022,1155,115.0
21.02.2022,1156,111.0
21.02.2022,1157,106.0
21.02.2022,1158,102.0
21.02.2022,1159,104.0
21.02.2022,1160,107.0
21.02.2022,1161,106.0
21.02.2022,1162,106.0
21.02.2022,1163,101.0
21.02.2022,1164,108.0
21.02.2022,1165,104.5
21.02.2022,1166,103.5
21.02.2022,1167,106.0
21.02.2022,1168,103.5
21.02.2022,1169,99.0
21.02.2022,1170,107.0
21.02.2022,1171,110.0
21.02.2022,1172,105.0
21.02.2022,1173,101.0
21.02.2022,1174,106.0
21.02.2022,1175,105.0
21.02.2022,1176,126.0
21.02.2022,1177,118.0
21.02.2022,1178,111.0
21.02.2022,1179,105.0
21.02.2022,1180,100.0
21.02.2022,1181,100.0
21.02.2022,1182,94.0
21.02.2022,1183,93.0
21.02.2022,1184,95.0
21.02.2022,1185,95.0
21.02.2022,1186,94.0
21.02.2022,1187,90.0
21.02.2022,1188,90.0
21.02.2022,1189,92.0
21.02.2022,1190,95.0
21.02.2022,1191,93.0
21.02.2022,1192,92.5
21.02.2022,1193,91.0
21.02.2022,1194,90.0
21.02.2022,1195,94.0
21.02.2022,1196,94.0
21.02.2022,1197,95.0
21.02.2022,1198,111.0
21.02.2022,1199,110.0
21.02.2022,1200,107.0
21.02.2022,1201,104.0
21.02.2022,1202,106.0
21.02.2022,1203,108.0
21.02.2022,1204,109.0
21.02.2022,1205,108.0
21.02.2022,1206,111.0
21.02.2022,1207,110.0
21.02.2022,1208,115.0
21.02.2022,1209,111.0
21.02.2022,1210,109.0
21.02.2022,1211,108.0
21.02.2022,1212,96.0
21.02.2022,1213,89.0
21.02.2022,1214,88.0
21.02.2022,1215,86.0
21.02.2022,1216,94.0
21.02.2022,1217,89.0
21.02.2022,1218,103.0
21.02.2022,1219,91.5
21.02.2022,1220,84.5
21.02.2022,1221,82.0
21.02.2022,1222,88.0
21.02.2022,1223,92.5
21.02.2022,1224,111.0
21.02.2022,1225,103.0
21.02.2022,1226,104.0
21.02.2022,1227,105.0
21.02.2022,1228,108.0
21.02.2022,1229,112.0
21.02.2022,1230,110.0
21.02.2022,1231,107.0
21.02.2022,1232,106.5
21.02.2022,1233,107.0
21.02.2022,1234,112.0
21.02.2022,1235,118.0
21.02.2022,1236,110.0
21.02.2022,1237,105.0
21.02.2022,1238,99.0
21.02.2022,1239,89.0
21.02.2022,1240,83.0
21.02.2022,1241,82.0
21.02.2022,1242,84.0
21.02.2022,1243,83.0
21.02.2022,1244,73.0
21.02.2022,1245,79.0
21.02.2022,1246,80.0
21.02.2022,1247,79.0
21.02.2022,1248,77.0
21.02.2022,1249,74.5
21.02.2022,1250,78.0
21.02.2022,1251,85.5
21.02.2022,1252,78.0
21.02.2022,1253,78.0
21.02.2022,1254,76.0
21.02.2022,1255,76.0
21.02.2022,1256,78.0
